Phone timestamp;sensor timestamp [ns];channel 0;channel 1;channel 2;ambient
2024-05-27T22:49:25.928;540044384740193540;296921;362993;310960;-1278;
2024-05-27T22:49:25.946;540044384758351750;296969;363052;310999;-1316;
2024-05-27T22:49:25.964;540044384776509960;296878;362938;310944;-1403;
2024-05-27T22:49:25.982;540044384794668170;296848;362897;310950;-1283;
2024-05-27T22:49:26.000;540044384812826380;296661;362673;310803;-1329;
2024-05-27T22:49:26.018;540044384830984590;296418;362468;310513;-1325;
2024-05-27T22:49:26.036;540044384849142800;296227;362222;310330;-1314;
2024-05-27T22:49:26.055;540044384867301010;295937;361913;310033;-1354;
2024-05-27T22:49:26.073;540044384885459220;295812;361827;309963;-1337;
2024-05-27T22:49:26.091;540044384903617430;295705;361664;309782;-1270;
2024-05-27T22:49:26.109;540044384921775640;295624;361682;309764;-1212;
2024-05-27T22:49:26.127;540044384939933850;295616;361651;309742;-1269;
2024-05-27T22:49:26.145;540044384958092060;295654;361769;309826;-1306;
2024-05-27T22:49:26.164;540044384976250270;295733;361869;309844;-1283;
2024-05-27T22:49:26.182;540044384994408480;295888;361951;310089;-1299;
2024-05-27T22:49:26.200;540044385012566690;295942;362143;310209;-1301;
2024-05-27T22:49:26.218;540044385030724900;296045;362275;310269;-1302;
2024-05-27T22:49:26.236;540044385048883110;296123;362350;310395;-1326;
2024-05-27T22:49:26.254;540044385067041320;296192;362448;310371;-1306;
2024-05-27T22:49:26.273;540044385085199530;296161;362523;310492;-1320;
2024-05-27T22:49:26.291;540044385103357740;296171;362569;310482;-1325;
2024-05-27T22:49:26.309;540044385121515950;296172;362551;310505;-1301;
2024-05-27T22:49:26.327;540044385139674160;296264;362537;310487;-1327;
2024-05-27T22:49:26.345;540044385157832370;296126;362463;310408;-1340;
2024-05-27T22:49:26.363;540044385175990580;296139;362469;310332;-1357;
2024-05-27T22:49:26.381;540044385194148790;296124;362405;310354;-1340;
2024-05-27T22:49:26.400;540044385212307000;296115;362378;310362;-1352;
2024-05-27T22:49:26.418;540044385230465210;295998;362271;310334;-1357;
2024-05-27T22:49:26.436;540044385248623420;295992;362263;310283;-1358;
2024-05-27T22:49:26.454;540044385266781630;295900;362240;310220;-1304;
2024-05-27T22:49:26.472;540044385284939840;295925;362224;310244;-1358;
2024-05-27T22:49:26.490;540044385303098050;295816;362198;310188;-1358;
2024-05-27T22:49:26.509;540044385321256260;295911;362195;310234;-1301;
2024-05-27T22:49:26.527;540044385339414470;295859;362230;310193;-1292;
2024-05-27T22:49:26.545;540044385357572680;295933;362290;310247;-1294;
2024-05-27T22:49:26.563;540044385375730890;295905;362275;310251;-1296;
2024-05-27T22:49:26.581;540044385393889100;295746;362085;310103;-1302;
2024-05-27T22:49:26.599;540044385412047310;295549;361814;309900;-1323;
2024-05-27T22:49:26.618;540044385430205520;295252;361499;309579;-1340;
2024-05-27T22:49:26.636;540044385448363730;294939;361162;309322;-1311;
2024-05-27T22:49:26.654;540044385466521940;294555;360843;309068;-1279;
2024-05-27T22:49:26.672;540044385484680150;294326;360558;308802;-1280;
2024-05-27T22:49:26.690;540044385502838360;294083;360331;308678;-1307;
2024-05-27T22:49:26.708;540044385520996570;293936;360152;308549;-1313;
2024-05-27T22:49:26.726;540044385539154780;293922;360115;308492;-1284;
2024-05-27T22:49:26.745;540044385557312990;293922;360071;308500;-1267;
2024-05-27T22:49:26.763;540044385575471200;293915;360159;308481;-1274;
2024-05-27T22:49:26.781;540044385593629410;293926;360202;308526;-1275;
2024-05-27T22:49:26.799;540044385611787620;294056;360330;308649;-1291;
2024-05-27T22:49:26.817;540044385629945830;294086;360466;308717;-1291;
2024-05-27T22:49:26.835;540044385648104040;294226;360608;308837;-1251;
2024-05-27T22:49:26.854;540044385666262250;294306;360691;308900;-1265;
2024-05-27T22:49:26.872;540044385684420460;294359;360718;308888;-1283;
2024-05-27T22:49:26.890;540044385702578670;294407;360814;308975;-1242;
2024-05-27T22:49:26.908;540044385720736880;294411;360897;309054;-1323;
2024-05-27T22:49:26.926;540044385738895090;294536;361030;309173;-1292;
2024-05-27T22:49:26.944;540044385757053300;294615;361098;309270;-1272;
2024-05-27T22:49:26.963;540044385775211510;294636;361239;309321;-1312;
2024-05-27T22:49:26.981;540044385793369720;294609;361241;309452;-1313;
2024-05-27T22:49:26.999;540044385811527930;294684;361317;309438;-1305;
2024-05-27T22:49:27.017;540044385829686140;294723;361401;309505;-1329;
2024-05-27T22:49:27.035;540044385847844350;294778;361499;309621;-1258;
2024-05-27T22:49:27.053;540044385866002560;294847;361590;309643;-1294;
2024-05-27T22:49:27.071;540044385884160770;294939;361702;309712;-1297;
2024-05-27T22:49:27.090;540044385902318980;295101;361823;309899;-1286;
2024-05-27T22:49:27.108;540044385920477190;295051;361937;309992;-1291;
2024-05-27T22:49:27.126;540044385938635400;295159;362035;310069;-1284;
2024-05-27T22:49:27.144;540044385956793610;295244;362080;310128;-1316;
2024-05-27T22:49:27.162;540044385974951820;295275;362182;310189;-1333;
2024-05-27T22:49:27.180;540044385993110030;295289;362193;310145;-1310;
2024-05-27T22:49:27.199;540044386011268240;295135;362033;310027;-1325;
2024-05-27T22:49:27.217;540044386029426450;294880;361773;309818;-1302;
2024-05-27T22:49:27.235;540044386047584660;294621;361462;309652;-1248;
2024-05-27T22:49:27.253;540044386065742870;294331;361224;309433;-1291;
2024-05-27T22:49:27.271;540044386083901080;294095;361025;309196;-1291;
2024-05-27T22:49:27.289;540044386102059290;293984;360855;309051;-1287;
2024-05-27T22:49:27.308;540044386120217500;293863;360736;309042;-1307;
2024-05-27T22:49:27.326;540044386138375710;293756;360705;309013;-1287;
2024-05-27T22:49:27.344;540044386156533920;293741;360719;308968;-1346;
2024-05-27T22:49:27.362;540044386174692130;293840;360800;308997;-1290;
2024-05-27T22:49:27.380;540044386192850340;293915;360895;309093;-1290;
2024-05-27T22:49:27.398;540044386211008550;293936;360981;309224;-1323;
2024-05-27T22:49:27.416;540044386229166760;294009;361034;309286;-1377;
2024-05-27T22:49:27.435;540044386247324970;294111;361202;309380;-1317;
2024-05-27T22:49:27.453;540044386265482258;294178;361281;309506;-1302;
2024-05-27T22:49:27.471;540044386283639509;294236;361353;309501;-1333;
2024-05-27T22:49:27.489;540044386301796760;294226;361322;309519;-1356;
2024-05-27T22:49:27.507;540044386319954011;294195;361377;309554;-1339;
2024-05-27T22:49:27.525;540044386338111262;294288;361400;309561;-1309;
2024-05-27T22:49:27.544;540044386356268513;294279;361420;309594;-1337;
2024-05-27T22:49:27.562;540044386374425764;294402;361480;309689;-1318;
2024-05-27T22:49:27.580;540044386392583015;294415;361572;309699;-1346;
2024-05-27T22:49:27.598;540044386410740266;294387;361581;309745;-1340;
2024-05-27T22:49:27.616;540044386428897517;294357;361573;309780;-1309;
2024-05-27T22:49:27.634;540044386447054768;294421;361630;309778;-1304;
2024-05-27T22:49:27.653;540044386465212019;294427;361683;309859;-1312;
2024-05-27T22:49:27.671;540044386483369270;294533;361765;309870;-1318;
2024-05-27T22:49:27.689;540044386501526521;294496;361796;309894;-1285;
2024-05-27T22:49:27.707;540044386519683772;294602;361895;310003;-1309;
2024-05-27T22:49:27.725;540044386537841023;294654;362055;310070;-1308;
2024-05-27T22:49:27.743;540044386555998274;294763;362114;310176;-1338;
2024-05-27T22:49:27.761;540044386574155525;294837;362145;310258;-1278;
2024-05-27T22:49:27.780;540044386592312776;294942;362253;310295;-1266;
2024-05-27T22:49:27.798;540044386610470027;294863;362225;310245;-1280;
2024-05-27T22:49:27.816;540044386628627278;294733;362070;310154;-1354;
2024-05-27T22:49:27.834;540044386646784529;294498;361908;309980;-1369;
2024-05-27T22:49:27.852;540044386664941780;294261;361539;309810;-1327;
2024-05-27T22:49:27.870;540044386683099031;293998;361265;309535;-1343;
2024-05-27T22:49:27.889;540044386701256282;293786;361030;309404;-1333;
2024-05-27T22:49:27.907;540044386719413533;293605;360868;309219;-1335;
2024-05-27T22:49:27.925;540044386737570784;293514;360719;309141;-1360;
2024-05-27T22:49:27.943;540044386755728035;293470;360711;309115;-1331;
2024-05-27T22:49:27.961;540044386773885286;293390;360681;309079;-1368;
2024-05-27T22:49:27.979;540044386792042537;293407;360775;309203;-1341;
2024-05-27T22:49:27.998;540044386810199788;293434;360872;309187;-1338;
2024-05-27T22:49:28.016;540044386828357039;293599;360945;309323;-1331;
2024-05-27T22:49:28.034;540044386846514290;293683;361082;309415;-1346;
2024-05-27T22:49:28.052;540044386864671541;293803;361227;309562;-1300;
2024-05-27T22:49:28.070;540044386882828792;293922;361319;309642;-1323;
2024-05-27T22:49:28.088;540044386900986043;293967;361378;309727;-1361;
2024-05-27T22:49:28.106;540044386919143294;294042;361547;309818;-1348;
2024-05-27T22:49:28.125;540044386937300545;294112;361559;309817;-1299;
2024-05-27T22:49:28.143;540044386955457796;294188;361661;309862;-1304;
2024-05-27T22:49:28.161;540044386973615047;294146;361661;309950;-1359;
2024-05-27T22:49:28.179;540044386991772298;294212;361690;309968;-1352;
2024-05-27T22:49:28.197;540044387009929549;294247;361804;310090;-1357;
2024-05-27T22:49:28.215;540044387028086800;294269;361899;310140;-1316;
2024-05-27T22:49:28.234;540044387046244240;294283;361900;310107;-1357;
2024-05-27T22:49:28.252;540044387064401650;294340;361993;310168;-1408;
2024-05-27T22:49:28.270;540044387082559060;294407;361922;310234;-1386;
2024-05-27T22:49:28.288;540044387100716470;294473;362050;310260;-1339;
2024-05-27T22:49:28.306;540044387118873880;294483;362112;310309;-1336;
2024-05-27T22:49:28.324;540044387137031290;294557;362220;310327;-1361;
2024-05-27T22:49:28.342;540044387155188700;294645;362284;310453;-1346;
2024-05-27T22:49:28.361;540044387173346110;294718;362412;310456;-1334;
2024-05-27T22:49:28.379;540044387191503520;294711;362461;310541;-1382;
2024-05-27T22:49:28.397;540044387209660930;294802;362481;310645;-1326;
2024-05-27T22:49:28.415;540044387227818340;294747;362470;310584;-1287;
2024-05-27T22:49:28.433;540044387245975750;294598;362342;310483;-1313;
2024-05-27T22:49:28.451;540044387264133160;294400;362049;310308;-1289;
2024-05-27T22:49:28.470;540044387282290570;294184;361796;310115;-1302;
2024-05-27T22:49:28.488;540044387300447980;293944;361584;309948;-1387;
2024-05-27T22:49:28.506;540044387318605390;293828;361422;309790;-1301;
2024-05-27T22:49:28.524;540044387336762800;293674;361227;309690;-1286;
2024-05-27T22:49:28.542;540044387354920210;293628;361217;309583;-1279;
2024-05-27T22:49:28.560;540044387373077620;293547;361124;309590;-1334;
2024-05-27T22:49:28.579;540044387391235030;293558;361174;309601;-1326;
2024-05-27T22:49:28.597;540044387409392440;293574;361228;309651;-1340;
2024-05-27T22:49:28.615;540044387427549850;293702;361325;309762;-1271;
2024-05-27T22:49:28.633;540044387445707260;293750;361418;309830;-1319;
2024-05-27T22:49:28.651;540044387463864670;293884;361569;309942;-1277;
2024-05-27T22:49:28.669;540044387482022080;293888;361578;310008;-1285;
2024-05-27T22:49:28.687;540044387500179490;293976;361791;310094;-1305;
2024-05-27T22:49:28.706;540044387518336900;294007;361844;310156;-1338;
2024-05-27T22:49:28.724;540044387536494310;294148;361929;310194;-1300;
2024-05-27T22:49:28.742;540044387554651720;294149;361947;310310;-1321;
2024-05-27T22:49:28.760;540044387572809130;294221;361959;310338;-1328;
2024-05-27T22:49:28.778;540044387590966540;294223;362058;310359;-1289;
2024-05-27T22:49:28.796;540044387609123950;294324;362088;310379;-1265;
2024-05-27T22:49:28.815;540044387627281360;294381;362159;310458;-1268;
2024-05-27T22:49:28.833;540044387645438770;294459;362276;310505;-1317;
2024-05-27T22:49:28.851;540044387663596180;294498;362339;310607;-1373;
2024-05-27T22:49:28.869;540044387681753590;294535;362361;310640;-1328;
2024-05-27T22:49:28.887;540044387699911000;294626;362482;310704;-1284;
2024-05-27T22:49:28.905;540044387718068410;294670;362513;310832;-1345;
2024-05-27T22:49:28.924;540044387736225820;294767;362590;310844;-1323;
2024-05-27T22:49:28.942;540044387754383230;294833;362690;310966;-1356;
2024-05-27T22:49:28.960;540044387772540640;294966;362826;311107;-1345;
2024-05-27T22:49:28.978;540044387790698050;295019;362914;311135;-1358;
2024-05-27T22:49:28.996;540044387808854352;295010;362967;311103;-1343;
2024-05-27T22:49:29.014;540044387827010636;294909;362898;311160;-1333;
2024-05-27T22:49:29.032;540044387845166920;294786;362750;310988;-1360;
2024-05-27T22:49:29.051;540044387863323204;294581;362526;310882;-1292;
2024-05-27T22:49:29.069;540044387881479488;294413;362281;310660;-1313;
2024-05-27T22:49:29.087;540044387899635772;294171;362094;310523;-1341;
2024-05-27T22:49:29.105;540044387917792056;294099;361942;310343;-1333;
2024-05-27T22:49:29.123;540044387935948340;294012;361765;310292;-1334;
2024-05-27T22:49:29.141;540044387954104624;293867;361737;310244;-1345;
2024-05-27T22:49:29.160;540044387972260908;293918;361727;310300;-1362;
2024-05-27T22:49:29.178;540044387990417192;293940;361812;310392;-1328;
2024-05-27T22:49:29.196;540044388008573476;293956;361879;310453;-1312;
2024-05-27T22:49:29.214;540044388026729760;294069;361932;310479;-1371;
2024-05-27T22:49:29.232;540044388044886044;294209;362024;310572;-1324;
2024-05-27T22:49:29.250;540044388063042328;294203;362104;310601;-1355;
2024-05-27T22:49:29.269;540044388081198612;294257;362161;310676;-1383;
2024-05-27T22:49:29.287;540044388099354896;294362;362128;310635;-1356;
2024-05-27T22:49:29.305;540044388117511180;294379;362211;310691;-1299;
2024-05-27T22:49:29.323;540044388135667464;294319;362221;310653;-1335;
2024-05-27T22:49:29.341;540044388153823748;294417;362257;310725;-1305;
2024-05-27T22:49:29.359;540044388171980032;294341;362254;310645;-1317;
2024-05-27T22:49:29.377;540044388190136316;294439;362283;310691;-1269;
2024-05-27T22:49:29.396;540044388208292600;294402;362293;310735;-1348;
2024-05-27T22:49:29.414;540044388226448884;294444;362305;310751;-1339;
2024-05-27T22:49:29.432;540044388244605168;294442;362265;310739;-1403;
2024-05-27T22:49:29.450;540044388262761452;294485;362324;310761;-1324;
2024-05-27T22:49:29.468;540044388280917736;294416;362309;310805;-1385;
2024-05-27T22:49:29.486;540044388299074020;294443;362362;310784;-1372;
2024-05-27T22:49:29.505;540044388317230304;294545;362318;310862;-1312;
2024-05-27T22:49:29.523;540044388335386588;294532;362370;310810;-1363;
2024-05-27T22:49:29.541;540044388353542872;294564;362385;310941;-1306;
2024-05-27T22:49:29.559;540044388371699156;294640;362467;310964;-1364;
2024-05-27T22:49:29.577;540044388389855440;294687;362533;311009;-1331;
2024-05-27T22:49:29.595;540044388408011724;294724;362617;311084;-1328;
2024-05-27T22:49:29.613;540044388426168008;294657;362500;310982;-1305;
2024-05-27T22:49:29.632;540044388444324292;294468;362299;310846;-1331;
2024-05-27T22:49:29.650;540044388462480576;294242;362032;310657;-1335;
2024-05-27T22:49:29.668;540044388480636860;294017;361782;310436;-1394;
2024-05-27T22:49:29.686;540044388498793144;293793;361429;310160;-1431;
2024-05-27T22:49:29.704;540044388516949428;293645;361271;310077;-1336;
2024-05-27T22:49:29.722;540044388535105712;293563;361118;310026;-1331;
2024-05-27T22:49:29.741;540044388553261996;293522;361067;309911;-1375;
2024-05-27T22:49:29.759;540044388571420308;293546;361115;309975;-1361;
2024-05-27T22:49:29.777;540044388589578590;293585;361170;310044;-1327;
2024-05-27T22:49:29.795;540044388607736872;293732;361183;310125;-1317;
2024-05-27T22:49:29.813;540044388625895154;293804;361329;310269;-1305;
2024-05-27T22:49:29.831;540044388644053436;293958;361458;310378;-1307;
2024-05-27T22:49:29.850;540044388662211718;294006;361610;310470;-1335;
2024-05-27T22:49:29.868;540044388680370000;294113;361756;310546;-1313;
2024-05-27T22:49:29.886;540044388698528282;294215;361750;310685;-1392;
2024-05-27T22:49:29.904;540044388716686564;294369;361988;310811;-1303;
2024-05-27T22:49:29.922;540044388734844846;294407;362063;310862;-1339;
2024-05-27T22:49:29.940;540044388753003128;294535;362097;310931;-1295;
2024-05-27T22:49:29.958;540044388771161410;294608;362177;310981;-1285;
2024-05-27T22:49:29.977;540044388789319692;294659;362238;311029;-1314;
2024-05-27T22:49:29.995;540044388807477974;294681;362282;311131;-1333;
2024-05-27T22:49:30.013;540044388825636256;294745;362365;311208;-1353;
2024-05-27T22:49:30.031;540044388843794538;294786;362396;311221;-1336;
2024-05-27T22:49:30.049;540044388861952820;294825;362513;311281;-1325;
2024-05-27T22:49:30.067;540044388880111102;294934;362582;311392;-1334;
2024-05-27T22:49:30.086;540044388898269384;295012;362626;311448;-1279;
2024-05-27T22:49:30.104;540044388916427666;295063;362795;311512;-1345;
2024-05-27T22:49:30.122;540044388934585948;295172;362856;311574;-1294;
2024-05-27T22:49:30.140;540044388952744230;295268;362915;311680;-1287;
2024-05-27T22:49:30.158;540044388970902512;295312;362961;311751;-1299;
2024-05-27T22:49:30.176;540044388989060794;295348;363022;311818;-1320;
2024-05-27T22:49:30.195;540044389007219076;295430;363119;311875;-1343;
2024-05-27T22:49:30.213;540044389025377358;295499;363169;311920;-1328;
2024-05-27T22:49:30.231;540044389043535640;295355;362998;311777;-1353;
2024-05-27T22:49:30.249;540044389061693922;295208;362840;311719;-1293;
2024-05-27T22:49:30.267;540044389079852204;295059;362603;311554;-1293;
2024-05-27T22:49:30.285;540044389098010486;294920;362344;311433;-1302;
2024-05-27T22:49:30.303;540044389116168768;294654;362143;311224;-1321;
2024-05-27T22:49:30.322;540044389134327050;294534;361971;311131;-1339;
2024-05-27T22:49:30.340;540044389152485332;294536;361892;310991;-1289;
2024-05-27T22:49:30.358;540044389170643614;294502;361833;311002;-1317;
2024-05-27T22:49:30.376;540044389188801896;294472;361851;311040;-1319;
2024-05-27T22:49:30.394;540044389206960178;294585;361856;311072;-1368;
2024-05-27T22:49:30.412;540044389225118460;294639;361910;311108;-1417;
2024-05-27T22:49:30.431;540044389243276742;294731;362011;311243;-1343;
2024-05-27T22:49:30.449;540044389261435024;294827;362147;311274;-1347;
2024-05-27T22:49:30.467;540044389279593306;294911;362251;311410;-1300;
2024-05-27T22:49:30.485;540044389297751588;295034;362295;311481;-1360;
2024-05-27T22:49:30.503;540044389315909870;295081;362383;311535;-1314;
2024-05-27T22:49:30.521;540044389334068832;295098;362390;311635;-1303;
2024-05-27T22:49:30.540;540044389352227768;295235;362526;311740;-1232;
2024-05-27T22:49:30.558;540044389370386704;295243;362503;311743;-1263;
2024-05-27T22:49:30.576;540044389388545640;295245;362590;311805;-1268;
2024-05-27T22:49:30.594;540044389406704576;295343;362588;311818;-1271;
2024-05-27T22:49:30.612;540044389424863512;295301;362584;311757;-1333;
2024-05-27T22:49:30.630;540044389443022448;295374;362658;311783;-1310;
2024-05-27T22:49:30.648;540044389461181384;295341;362626;311800;-1339;
2024-05-27T22:49:30.667;540044389479340320;295457;362614;311818;-1308;
2024-05-27T22:49:30.685;540044389497499256;295494;362684;311919;-1356;
2024-05-27T22:49:30.703;540044389515658192;295545;362762;312008;-1294;
2024-05-27T22:49:30.721;540044389533817128;295650;362854;312075;-1327;
2024-05-27T22:49:30.739;540044389551976064;295713;362847;312096;-1313;
2024-05-27T22:49:30.757;540044389570135000;295735;362922;312166;-1319;
2024-05-27T22:49:30.776;540044389588293936;295882;363031;312226;-1288;
2024-05-27T22:49:30.794;540044389606452872;295857;363049;312257;-1334;
2024-05-27T22:49:30.812;540044389624611808;295912;363143;312284;-1304;
2024-05-27T22:49:30.830;540044389642770744;295940;363043;312234;-1364;
2024-05-27T22:49:30.848;540044389660929680;295782;362947;312166;-1451;
2024-05-27T22:49:30.866;540044389679088616;295663;362719;312103;-1364;
2024-05-27T22:49:30.885;540044389697247552;295465;362454;311866;-1322;
2024-05-27T22:49:30.903;540044389715406488;295347;362279;311700;-1368;
2024-05-27T22:49:30.921;540044389733565424;295287;362109;311581;-1376;
2024-05-27T22:49:30.939;540044389751724360;295208;362041;311535;-1324;
2024-05-27T22:49:30.957;540044389769883296;295199;361994;311592;-1320;
2024-05-27T22:49:30.975;540044389788042232;295274;361965;311627;-1207;
2024-05-27T22:49:30.994;540044389806201168;295247;361968;311647;-1340;
2024-05-27T22:49:31.012;540044389824360104;295250;362046;311709;-1313;
2024-05-27T22:49:31.030;540044389842519040;295405;362162;311736;-1360;
2024-05-27T22:49:31.048;540044389860677976;295513;362264;311911;-1312;
2024-05-27T22:49:31.066;540044389878836912;295575;362386;311943;-1294;
2024-05-27T22:49:31.084;540044389896995848;295729;362418;311978;-1317;
2024-05-27T22:49:31.102;540044389915154784;295835;362585;312099;-1338;
2024-05-27T22:49:31.121;540044389933313720;295961;362769;312220;-1280;
2024-05-27T22:49:31.139;540044389951472656;296001;362793;312290;-1330;
2024-05-27T22:49:31.157;540044389969631592;296028;362809;312291;-1317;
2024-05-27T22:49:31.175;540044389987790528;296088;362806;312383;-1381;
2024-05-27T22:49:31.193;540044390005949464;296073;362858;312437;-1342;
2024-05-27T22:49:31.211;540044390024108400;296213;362896;312455;-1328;
2024-05-27T22:49:31.230;540044390042267336;296189;362847;312475;-1344;
2024-05-27T22:49:31.248;540044390060426272;296222;362890;312567;-1360;
2024-05-27T22:49:31.266;540044390078585208;296262;362948;312615;-1338;
2024-05-27T22:49:31.284;540044390096744798;296314;363004;312592;-1350;
2024-05-27T22:49:31.302;540044390114904351;296396;363027;312670;-1347;
2024-05-27T22:49:31.320;540044390133063904;296548;363149;312730;-1342;
2024-05-27T22:49:31.339;540044390151223457;296536;363113;312800;-1326;
2024-05-27T22:49:31.357;540044390169383010;296614;363236;312869;-1328;
2024-05-27T22:49:31.375;540044390187542563;296685;363337;312902;-1344;
2024-05-27T22:49:31.393;540044390205702116;296748;363402;313008;-1322;
2024-05-27T22:49:31.411;540044390223861669;296823;363456;313043;-1306;
2024-05-27T22:49:31.429;540044390242021222;296836;363442;313068;-1311;
2024-05-27T22:49:31.447;540044390260180775;296711;363243;313015;-1369;
2024-05-27T22:49:31.466;540044390278340328;296631;363066;312810;-1330;
2024-05-27T22:49:31.484;540044390296499881;296503;362853;312769;-1303;
2024-05-27T22:49:31.502;540044390314659434;296382;362622;312592;-1325;
2024-05-27T22:49:31.520;540044390332818987;296277;362564;312538;-1331;
2024-05-27T22:49:31.538;540044390350978540;296252;362453;312502;-1316;
2024-05-27T22:49:31.556;540044390369138093;296223;362392;312440;-1323;
2024-05-27T22:49:31.575;540044390387297646;296247;362435;312456;-1386;
2024-05-27T22:49:31.593;540044390405457199;296367;362503;312547;-1369;
2024-05-27T22:49:31.611;540044390423616752;296396;362601;312682;-1299;
2024-05-27T22:49:31.629;540044390441776305;296521;362641;312693;-1321;
2024-05-27T22:49:31.647;540044390459935858;296657;362810;312850;-1301;
2024-05-27T22:49:31.665;540044390478095411;296794;363011;312909;-1309;
2024-05-27T22:49:31.684;540044390496254964;296846;363094;313003;-1347;
2024-05-27T22:49:31.702;540044390514414517;296994;363202;313106;-1313;
2024-05-27T22:49:31.720;540044390532574070;297087;363213;313231;-1331;
2024-05-27T22:49:31.738;540044390550733623;297171;363358;313265;-1356;
2024-05-27T22:49:31.756;540044390568893176;297237;363387;313331;-1293;
2024-05-27T22:49:31.774;540044390587052729;297266;363385;313305;-1273;
2024-05-27T22:49:31.793;540044390605212282;297319;363419;313371;-1339;
2024-05-27T22:49:31.811;540044390623371835;297397;363507;313401;-1318;
2024-05-27T22:49:31.829;540044390641531388;297403;363538;313479;-1306;
2024-05-27T22:49:31.847;540044390659690941;297406;363589;313483;-1352;
2024-05-27T22:49:31.865;540044390677850494;297433;363623;313468;-1280;
2024-05-27T22:49:31.883;540044390696010047;297486;363682;313561;-1243;
2024-05-27T22:49:31.901;540044390714169600;297570;363753;313572;-1328;
2024-05-27T22:49:31.920;540044390732329153;297608;363777;313721;-1279;
2024-05-27T22:49:31.938;540044390750488706;297706;363824;313723;-1331;
2024-05-27T22:49:31.956;540044390768648259;297799;363922;313825;-1320;
2024-05-27T22:49:31.974;540044390786807812;297815;363924;313801;-1326;
2024-05-27T22:49:31.992;540044390804967365;297871;363884;313850;-1377;
2024-05-27T22:49:32.010;540044390823126918;297853;363893;313818;-1328;
2024-05-27T22:49:32.029;540044390841286471;297846;363817;313802;-1316;
2024-05-27T22:49:32.047;540044390859444805;297761;363678;313702;-1293;
2024-05-27T22:49:32.065;540044390877603124;297577;363487;313527;-1339;
2024-05-27T22:49:32.083;540044390895761443;297494;363211;313411;-1337;
2024-05-27T22:49:32.101;540044390913919762;297399;363018;313243;-1357;
2024-05-27T22:49:32.119;540044390932078081;297323;362948;313229;-1369;
2024-05-27T22:49:32.138;540044390950236400;297355;362961;313245;-1348;
2024-05-27T22:49:32.156;540044390968394719;297401;362928;313226;-1322;
2024-05-27T22:49:32.174;540044390986553038;297465;363059;313291;-1333;
2024-05-27T22:49:32.192;540044391004711357;297570;363067;313349;-1312;
2024-05-27T22:49:32.210;540044391022869676;297605;363116;313433;-1322;
2024-05-27T22:49:32.228;540044391041027995;297690;363296;313449;-1284;
2024-05-27T22:49:32.246;540044391059186314;297783;363405;313595;-1285;
2024-05-27T22:49:32.265;540044391077344633;297877;363465;313674;-1295;
2024-05-27T22:49:32.283;540044391095502952;297864;363584;313737;-1231;
2024-05-27T22:49:32.301;540044391113661271;297964;363636;313800;-1327;
2024-05-27T22:49:32.319;540044391131819590;297998;363645;313813;-1396;
2024-05-27T22:49:32.337;540044391149977909;298065;363804;313867;-1333;
2024-05-27T22:49:32.355;540044391168136228;298101;363795;313870;-1346;
2024-05-27T22:49:32.374;540044391186294547;298129;363792;313840;-1362;
2024-05-27T22:49:32.392;540044391204452866;298222;363831;313919;-1322;
2024-05-27T22:49:32.410;540044391222611185;298212;363855;313968;-1368;
2024-05-27T22:49:32.428;540044391240769504;298322;363905;313961;-1313;
2024-05-27T22:49:32.446;540044391258927823;298352;363945;313991;-1331;
2024-05-27T22:49:32.464;540044391277086142;298332;364000;314062;-1368;
2024-05-27T22:49:32.483;540044391295244461;298433;364063;314049;-1340;
2024-05-27T22:49:32.501;540044391313402780;298452;364062;314083;-1396;
2024-05-27T22:49:32.519;540044391331561099;298516;364081;314146;-1360;
2024-05-27T22:49:32.537;540044391349719418;298578;364134;314241;-1361;
2024-05-27T22:49:32.555;540044391367877737;298608;364321;314272;-1269;
2024-05-27T22:49:32.573;540044391386036056;298590;364223;314195;-1387;
2024-05-27T22:49:32.592;540044391404194375;298557;364053;314099;-1363;
2024-05-27T22:49:32.610;540044391422352694;298492;363914;314026;-1352;
2024-05-27T22:49:32.628;540044391440511013;298391;363680;313962;-1330;
2024-05-27T22:49:32.646;540044391458669332;298247;363571;313805;-1312;
2024-05-27T22:49:32.664;540044391476827651;298164;363347;313692;-1379;
2024-05-27T22:49:32.682;540044391494985970;298057;363281;313608;-1338;
2024-05-27T22:49:32.700;540044391513144289;298151;363277;313523;-1375;
2024-05-27T22:49:32.719;540044391531302608;298188;363337;313611;-1336;
2024-05-27T22:49:32.737;540044391549460927;298160;363267;313611;-1322;
2024-05-27T22:49:32.755;540044391567619246;298230;363387;313678;-1333;
2024-05-27T22:49:32.773;540044391585777565;298373;363522;313792;-1320;
2024-05-27T22:49:32.791;540044391603935884;298461;363599;313854;-1382;
2024-05-27T22:49:32.809;540044391622095656;298492;363707;313937;-1361;
2024-05-27T22:49:32.828;540044391640255391;298565;363833;314025;-1333;
2024-05-27T22:49:32.846;540044391658415126;298719;363954;314162;-1346;
2024-05-27T22:49:32.864;540044391676574861;298771;364032;314199;-1278;
2024-05-27T22:49:32.882;540044391694734596;298859;364132;314276;-1330;
2024-05-27T22:49:32.900;540044391712894331;298889;364263;314356;-1356;
2024-05-27T22:49:32.918;540044391731054066;298961;364274;314369;-1324;
2024-05-27T22:49:32.937;540044391749213801;299069;364329;314401;-1272;
2024-05-27T22:49:32.955;540044391767373536;299119;364383;314484;-1320;
2024-05-27T22:49:32.973;540044391785533271;299135;364381;314402;-1397;
2024-05-27T22:49:32.991;540044391803693006;299219;364518;314513;-1392;
2024-05-27T22:49:33.009;540044391821852741;299210;364583;314548;-1387;
2024-05-27T22:49:33.027;540044391840012476;299304;364668;314655;-1362;
2024-05-27T22:49:33.045;540044391858172211;299395;364696;314642;-1311;
2024-05-27T22:49:33.064;540044391876331946;299421;364742;314676;-1389;
2024-05-27T22:49:33.082;540044391894491681;299484;364845;314833;-1347;
2024-05-27T22:49:33.100;540044391912651416;299537;364815;314881;-1355;
2024-05-27T22:49:33.118;540044391930811151;299518;364834;314842;-1358;
2024-05-27T22:49:33.136;540044391948970886;299476;364642;314728;-1365;
2024-05-27T22:49:33.154;540044391967130621;299329;364458;314531;-1319;
2024-05-27T22:49:33.173;540044391985290356;299233;364240;314380;-1322;
2024-05-27T22:49:33.191;540044392003450091;299065;363960;314214;-1365;
2024-05-27T22:49:33.209;540044392021609826;298941;363818;313967;-1353;
2024-05-27T22:49:33.227;540044392039769561;298878;363730;313885;-1294;
2024-05-27T22:49:33.245;540044392057929296;298888;363546;313739;-1325;
2024-05-27T22:49:33.263;540044392076089031;298791;363554;313772;-1336;
2024-05-27T22:49:33.282;540044392094248766;298885;363555;313770;-1316;
2024-05-27T22:49:33.300;540044392112408501;298867;363590;313742;-1329;
2024-05-27T22:49:33.318;540044392130568236;298895;363574;313799;-1352;
2024-05-27T22:49:33.336;540044392148727971;299006;363672;313815;-1383;
2024-05-27T22:49:33.354;540044392166887706;299072;363711;313891;-1317;
2024-05-27T22:49:33.372;540044392185047441;299077;363753;313938;-1350;
2024-05-27T22:49:33.391;540044392203207176;299114;363863;314030;-1323;
2024-05-27T22:49:33.409;540044392221366911;299167;363932;314040;-1313;
2024-05-27T22:49:33.427;540044392239526646;299127;363946;313987;-1394;
2024-05-27T22:49:33.445;540044392257686381;299193;363983;314011;-1341;
2024-05-27T22:49:33.463;540044392275846116;299319;363941;314007;-1327;
2024-05-27T22:49:33.481;540044392294005851;299200;363902;313999;-1297;
2024-05-27T22:49:33.499;540044392312165586;299243;363945;314028;-1261;
2024-05-27T22:49:33.518;540044392330325321;299215;363915;314007;-1325;
2024-05-27T22:49:33.536;540044392348485056;299199;363926;314001;-1355;
2024-05-27T22:49:33.554;540044392366644791;299240;363997;313985;-1325;
2024-05-27T22:49:33.572;540044392384805068;299247;363932;313925;-1358;
2024-05-27T22:49:33.590;540044392402965336;299217;363903;313927;-1318;
2024-05-27T22:49:33.608;540044392421125604;299220;363846;313941;-1353;
2024-05-27T22:49:33.627;540044392439285872;299238;363863;313883;-1364;
2024-05-27T22:49:33.645;540044392457446140;299314;363920;313937;-1345;
2024-05-27T22:49:33.663;540044392475606408;299231;363817;313873;-1375;
2024-05-27T22:49:33.681;540044392493766676;299092;363628;313735;-1362;
2024-05-27T22:49:33.699;540044392511926944;298922;363329;313424;-1311;
2024-05-27T22:49:33.717;540044392530087212;298640;362940;313152;-1350;
2024-05-27T22:49:33.736;540044392548247480;298512;362666;312931;-1305;
2024-05-27T22:49:33.754;540044392566407748;298256;362324;312589;-1350;
2024-05-27T22:49:33.772;540044392584568016;298148;362098;312477;-1296;
2024-05-27T22:49:33.790;540044392602728284;298024;361985;312340;-1331;
2024-05-27T22:49:33.808;540044392620888552;297992;361835;312256;-1320;
2024-05-27T22:49:33.826;540044392639048820;298000;361834;312148;-1293;
2024-05-27T22:49:33.845;540044392657209088;297981;361799;312167;-1314;
2024-05-27T22:49:33.863;540044392675369356;298043;361837;312169;-1317;
2024-05-27T22:49:33.881;540044392693529624;298083;361919;312230;-1320;
2024-05-27T22:49:33.899;540044392711689892;298119;362030;312294;-1359;
2024-05-27T22:49:33.917;540044392729850160;298214;362104;312354;-1370;
2024-05-27T22:49:33.935;540044392748010428;298228;362159;312416;-1380;
2024-05-27T22:49:33.953;540044392766170696;298280;362222;312449;-1359;
2024-05-27T22:49:33.972;540044392784330964;298325;362305;312483;-1341;
2024-05-27T22:49:33.990;540044392802491232;298364;362340;312522;-1330;
2024-05-27T22:49:34.008;540044392820651500;298364;362340;312508;-1323;
2024-05-27T22:49:34.026;540044392838811768;298402;362368;312516;-1327;
2024-05-27T22:49:34.044;540044392856972036;298443;362453;312533;-1308;
2024-05-27T22:49:34.062;540044392875132304;298466;362476;312511;-1343;
2024-05-27T22:49:34.081;540044392893292572;298463;362459;312553;-1344;
2024-05-27T22:49:34.099;540044392911452840;298483;362498;312574;-1272;
2024-05-27T22:49:34.117;540044392929613108;298499;362532;312596;-1309;
2024-05-27T22:49:34.135;540044392947773376;298587;362568;312598;-1391;
2024-05-27T22:49:34.153;540044392965933644;298662;362589;312668;-1340;
2024-05-27T22:49:34.171;540044392984093912;298697;362656;312695;-1321;
2024-05-27T22:49:34.190;540044393002254180;298707;362703;312694;-1331;
2024-05-27T22:49:34.208;540044393020414448;298725;362702;312711;-1289;
2024-05-27T22:49:34.226;540044393038574716;298685;362670;312605;-1360;
2024-05-27T22:49:34.244;540044393056734984;298598;362488;312554;-1290;
2024-05-27T22:49:34.262;540044393074895252;298412;362263;312307;-1337;
2024-05-27T22:49:34.280;540044393093055520;298212;361916;311993;-1321;
2024-05-27T22:49:34.299;540044393111215788;297999;361590;311721;-1294;
2024-05-27T22:49:34.317;540044393129376056;297787;361323;311518;-1373;
2024-05-27T22:49:34.335;540044393147536324;297648;361096;311315;-1346;
2024-05-27T22:49:34.353;540044393165694098;297575;360978;311205;-1331;
2024-05-27T22:49:34.371;540044393183851872;297528;360949;311131;-1305;
2024-05-27T22:49:34.389;540044393202009646;297565;360880;311097;-1310;
2024-05-27T22:49:34.407;540044393220167420;297618;360874;311072;-1294;
2024-05-27T22:49:34.426;540044393238325194;297626;360995;311213;-1379;
2024-05-27T22:49:34.444;540044393256482968;297707;361082;311249;-1357;
2024-05-27T22:49:34.462;540044393274640742;297799;361193;311331;-1312;
2024-05-27T22:49:34.480;540044393292798516;297839;361283;311341;-1365;
2024-05-27T22:49:34.498;540044393310956290;297884;361338;311476;-1316;
2024-05-27T22:49:34.516;540044393329114064;297981;361455;311516;-1323;
2024-05-27T22:49:34.535;540044393347271838;297949;361540;311547;-1339;
2024-05-27T22:49:34.553;540044393365429612;298021;361563;311554;-1372;
2024-05-27T22:49:34.571;540044393383587386;298026;361593;311580;-1343;
2024-05-27T22:49:34.589;540044393401745160;298085;361614;311614;-1313;
2024-05-27T22:49:34.607;540044393419902934;298141;361628;311561;-1322;
2024-05-27T22:49:34.625;540044393438060708;298060;361657;311519;-1340;
2024-05-27T22:49:34.644;540044393456218482;298138;361679;311567;-1348;
2024-05-27T22:49:34.662;540044393474376256;298104;361714;311589;-1354;
2024-05-27T22:49:34.680;540044393492534030;298086;361730;311622;-1385;
2024-05-27T22:49:34.698;540044393510691804;298152;361760;311635;-1342;
2024-05-27T22:49:34.716;540044393528849578;298176;361813;311575;-1395;
2024-05-27T22:49:34.734;540044393547007352;298218;361831;311684;-1355;
2024-05-27T22:49:34.752;540044393565165126;298176;361800;311625;-1392;
2024-05-27T22:49:34.771;540044393583322900;298237;361847;311642;-1379;
2024-05-27T22:49:34.789;540044393601480674;298272;361943;311644;-1309;
2024-05-27T22:49:34.807;540044393619638448;298140;361703;311564;-1359;
2024-05-27T22:49:34.825;540044393637796222;298017;361494;311334;-1391;
2024-05-27T22:49:34.843;540044393655953996;297810;361151;311104;-1343;
2024-05-27T22:49:34.861;540044393674111770;297590;360812;310838;-1312;
2024-05-27T22:49:34.880;540044393692269544;297314;360541;310509;-1306;
2024-05-27T22:49:34.898;540044393710427318;297127;360286;310343;-1346;
2024-05-27T22:49:34.916;540044393728585092;297020;360111;310216;-1311;
2024-05-27T22:49:34.934;540044393746742866;296907;359982;310081;-1376;
2024-05-27T22:49:34.952;540044393764900640;296879;359913;309979;-1305;
2024-05-27T22:49:34.970;540044393783058414;296889;359952;310051;-1320;
2024-05-27T22:49:34.989;540044393801216188;296958;360005;310028;-1320;
2024-05-27T22:49:35.007;540044393819373962;296986;360094;310082;-1321;
2024-05-27T22:49:35.025;540044393837531736;297060;360230;310181;-1274;
2024-05-27T22:49:35.043;540044393855689510;297107;360327;310247;-1287;
2024-05-27T22:49:35.061;540044393873847284;297167;360388;310299;-1306;
2024-05-27T22:49:35.079;540044393892005058;297206;360409;310299;-1319;
2024-05-27T22:49:35.097;540044393910162832;297245;360489;310402;-1338;
2024-05-27T22:49:35.116;540044393928321838;297290;360578;310478;-1262;
2024-05-27T22:49:35.134;540044393946480810;297328;360554;310457;-1286;
2024-05-27T22:49:35.152;540044393964639782;297290;360620;310430;-1292;
2024-05-27T22:49:35.170;540044393982798754;297310;360623;310464;-1337;
2024-05-27T22:49:35.188;540044394000957726;297293;360637;310427;-1344;
2024-05-27T22:49:35.206;540044394019116698;297287;360616;310420;-1322;
2024-05-27T22:49:35.225;540044394037275670;297320;360634;310442;-1276;
2024-05-27T22:49:35.243;540044394055434642;297385;360611;310405;-1360;
2024-05-27T22:49:35.261;540044394073593614;297350;360697;310465;-1295;
2024-05-27T22:49:35.279;540044394091752586;297436;360670;310453;-1342;
2024-05-27T22:49:35.297;540044394109911558;297436;360760;310455;-1346;
2024-05-27T22:49:35.315;540044394128070530;297416;360813;310523;-1330;
2024-05-27T22:49:35.334;540044394146229502;297480;360888;310600;-1343;
2024-05-27T22:49:35.352;540044394164388474;297478;360943;310617;-1354;
2024-05-27T22:49:35.370;540044394182547446;297499;360864;310562;-1344;
2024-05-27T22:49:35.388;540044394200706418;297394;360791;310466;-1387;
2024-05-27T22:49:35.406;540044394218865390;297226;360551;310295;-1330;
2024-05-27T22:49:35.424;540044394237024362;297059;360274;309996;-1321;
2024-05-27T22:49:35.442;540044394255183334;296802;359925;309779;-1319;
2024-05-27T22:49:35.461;540044394273342306;296617;359610;309599;-1326;
2024-05-27T22:49:35.479;540044394291501278;296481;359445;309426;-1357;
2024-05-27T22:49:35.497;540044394309660250;296351;359304;309244;-1370;
2024-05-27T22:49:35.515;540044394327819222;296280;359200;309156;-1368;
2024-05-27T22:49:35.533;540044394345978194;296287;359216;309198;-1352;
2024-05-27T22:49:35.551;540044394364137166;296354;359364;309261;-1322;
2024-05-27T22:49:35.570;540044394382296138;296373;359459;309340;-1325;
2024-05-27T22:49:35.588;540044394400455110;296376;359572;309407;-1314;
2024-05-27T22:49:35.606;540044394418614082;296513;359674;309443;-1303;
2024-05-27T22:49:35.624;540044394436773054;296553;359746;309589;-1317;
2024-05-27T22:49:35.642;540044394454932026;296627;359911;309617;-1352;
2024-05-27T22:49:35.660;540044394473090998;296682;359953;309725;-1309;
2024-05-27T22:49:35.679;540044394491249970;296742;360049;309728;-1330;
2024-05-27T22:49:35.697;540044394509408942;296787;360053;309814;-1316;
2024-05-27T22:49:35.715;540044394527567914;296778;360117;309772;-1329;
2024-05-27T22:49:35.733;540044394545726886;296812;360134;309803;-1343;
2024-05-27T22:49:35.751;540044394563885858;296830;360185;309847;-1287;
2024-05-27T22:49:35.769;540044394582044830;296842;360135;309821;-1338;
2024-05-27T22:49:35.788;540044394600203802;296827;360209;309816;-1278;
2024-05-27T22:49:35.806;540044394618362774;296848;360238;309796;-1356;
2024-05-27T22:49:35.824;540044394636521746;296874;360280;309952;-1274;
2024-05-27T22:49:35.842;540044394654680718;296883;360328;309952;-1297;
2024-05-27T22:49:35.860;540044394672839690;296935;360330;309946;-1282;
2024-05-27T22:49:35.878;540044394690998662;297001;360481;309995;-1282;
2024-05-27T22:49:35.896;540044394709157634;297011;360476;309998;-1329;
2024-05-27T22:49:35.915;540044394727316940;297075;360579;310053;-1303;
2024-05-27T22:49:35.933;540044394745476240;297011;360581;310063;-1331;
2024-05-27T22:49:35.951;540044394763635540;297082;360583;310068;-1261;
2024-05-27T22:49:35.969;540044394781794840;296925;360549;309926;-1283;
2024-05-27T22:49:35.987;540044394799954140;296757;360245;309773;-1294;
2024-05-27T22:49:36.005;540044394818113440;296513;359913;309451;-1265;
2024-05-27T22:49:36.024;540044394836272740;296280;359626;309247;-1329;
2024-05-27T22:49:36.042;540044394854432040;296072;359375;309051;-1323;
2024-05-27T22:49:36.060;540044394872591340;295922;359182;308897;-1303;
2024-05-27T22:49:36.078;540044394890750640;295865;359139;308848;-1291;
2024-05-27T22:49:36.096;540044394908909940;295843;359035;308728;-1304;
2024-05-27T22:49:36.114;540044394927069240;295797;359070;308812;-1295;
2024-05-27T22:49:36.133;540044394945228540;295802;359168;308814;-1340;
2024-05-27T22:49:36.151;540044394963387840;295942;359344;308992;-1286;
2024-05-27T22:49:36.169;540044394981547140;296034;359517;309084;-1325;
2024-05-27T22:49:36.187;540044394999706440;296147;359637;309185;-1321;
2024-05-27T22:49:36.205;540044395017865740;296317;359747;309267;-1278;
2024-05-27T22:49:36.223;540044395036025040;296372;359931;309411;-1301;
2024-05-27T22:49:36.241;540044395054184340;296393;360018;309459;-1272;
2024-05-27T22:49:36.260;540044395072343640;296449;360111;309511;-1336;
2024-05-27T22:49:36.278;540044395090502940;296463;360162;309545;-1308;
2024-05-27T22:49:36.296;540044395108662240;296506;360249;309721;-1291;
2024-05-27T22:49:36.314;540044395126821540;296651;360339;309767;-1301;
2024-05-27T22:49:36.332;540044395144980840;296680;360337;309701;-1316;
2024-05-27T22:49:36.350;540044395163140140;296669;360383;309733;-1377;
2024-05-27T22:49:36.369;540044395181299440;296731;360526;309815;-1343;
2024-05-27T22:49:36.387;540044395199458740;296705;360567;309830;-1252;
2024-05-27T22:49:36.405;540044395217618040;296721;360612;309866;-1276;
2024-05-27T22:49:36.423;540044395235777340;296754;360677;309959;-1342;
2024-05-27T22:49:36.441;540044395253936640;296832;360775;310039;-1291;
2024-05-27T22:49:36.459;540044395272095940;296839;360742;310050;-1317;
2024-05-27T22:49:36.478;540044395290255240;296882;360830;310084;-1269;
2024-05-27T22:49:36.496;540044395308414540;296861;360912;310110;-1371;
2024-05-27T22:49:36.514;540044395326573840;296877;360989;310224;-1350;
2024-05-27T22:49:36.532;540044395344733140;296868;360951;310182;-1322;
2024-05-27T22:49:36.550;540044395362892440;296780;360843;310039;-1320;
2024-05-27T22:49:36.568;540044395381051740;296670;360569;309869;-1300;
2024-05-27T22:49:36.587;540044395399211040;296401;360258;309550;-1271;
2024-05-27T22:49:36.605;540044395417370340;296074;359934;309255;-1306;
2024-05-27T22:49:36.623;540044395435529640;295723;359552;308974;-1360;
2024-05-27T22:49:36.641;540044395453688940;295437;359336;308718;-1331;
2024-05-27T22:49:36.659;540044395471848240;295251;359155;308620;-1331;
2024-05-27T22:49:36.677;540044395490007023;295127;359111;308542;-1347;
2024-05-27T22:49:36.695;540044395508165764;295034;359037;308460;-1386;
2024-05-27T22:49:36.714;540044395526324505;295016;359060;308444;-1361;
2024-05-27T22:49:36.732;540044395544483246;295076;359148;308510;-1286;
2024-05-27T22:49:36.750;540044395562641987;295093;359235;308559;-1288;
2024-05-27T22:49:36.768;540044395580800728;295170;359348;308638;-1322;
2024-05-27T22:49:36.786;540044395598959469;295301;359457;308698;-1291;
2024-05-27T22:49:36.804;540044395617118210;295362;359603;308822;-1340;
2024-05-27T22:49:36.823;540044395635276951;295363;359632;308890;-1285;
2024-05-27T22:49:36.841;540044395653435692;295428;359711;308909;-1324;
2024-05-27T22:49:36.859;540044395671594433;295425;359752;308990;-1307;
2024-05-27T22:49:36.877;540044395689753174;295473;359800;309082;-1259;
2024-05-27T22:49:36.895;540044395707911915;295401;359844;309051;-1261;
2024-05-27T22:49:36.913;540044395726070656;295467;359887;309111;-1267;
2024-05-27T22:49:36.932;540044395744229397;295480;359923;309093;-1317;
2024-05-27T22:49:36.950;540044395762388138;295460;359952;309071;-1362;
2024-05-27T22:49:36.968;540044395780546879;295459;360011;309112;-1302;
2024-05-27T22:49:36.986;540044395798705620;295529;360077;309134;-1283;
2024-05-27T22:49:37.004;540044395816864361;295562;360093;309148;-1294;
2024-05-27T22:49:37.022;540044395835023102;295615;360126;309283;-1348;
2024-05-27T22:49:37.040;540044395853181843;295648;360234;309332;-1305;
2024-05-27T22:49:37.059;540044395871340584;295695;360293;309383;-1301;
2024-05-27T22:49:37.077;540044395889499325;295805;360375;309396;-1323;
2024-05-27T22:49:37.095;540044395907658066;295814;360435;309448;-1334;
2024-05-27T22:49:37.113;540044395925816807;295866;360547;309567;-1356;
2024-05-27T22:49:37.131;540044395943975548;295837;360573;309592;-1319;
2024-05-27T22:49:37.149;540044395962134289;295668;360479;309535;-1285;
2024-05-27T22:49:37.168;540044395980293030;295527;360271;309341;-1271;
2024-05-27T22:49:37.186;540044395998451771;295169;360005;309053;-1299;
2024-05-27T22:49:37.204;540044396016610512;294918;359665;308795;-1286;
2024-05-27T22:49:37.222;540044396034769253;294620;359350;308522;-1278;
2024-05-27T22:49:37.240;540044396052927994;294343;359133;308300;-1317;
2024-05-27T22:49:37.258;540044396071086735;294234;358951;308171;-1301;
2024-05-27T22:49:37.277;540044396089245476;294061;358847;308071;-1324;
2024-05-27T22:49:37.295;540044396107404217;293973;358764;307998;-1314;
2024-05-27T22:49:37.313;540044396125562958;293959;358848;308061;-1306;
2024-05-27T22:49:37.331;540044396143721699;294034;358918;308129;-1303;
2024-05-27T22:49:37.349;540044396161880440;294114;359030;308112;-1273;
2024-05-27T22:49:37.367;540044396180039181;294128;359160;308237;-1297;
2024-05-27T22:49:37.386;540044396198197922;294169;359265;308311;-1322;
2024-05-27T22:49:37.404;540044396216356663;294268;359394;308422;-1304;
2024-05-27T22:49:37.422;540044396234515404;294317;359514;308529;-1348;
2024-05-27T22:49:37.440;540044396252674145;294454;359666;308623;-1326;
2024-05-27T22:49:37.458;540044396270832577;294490;359815;308748;-1347;
2024-05-27T22:49:37.476;540044396288990968;294518;359762;308757;-1362;
2024-05-27T22:49:37.494;540044396307149359;294509;359856;308766;-1326;
2024-05-27T22:49:37.513;540044396325307750;294593;359956;308891;-1302;
2024-05-27T22:49:37.531;540044396343466141;294604;359999;308894;-1358;
2024-05-27T22:49:37.549;540044396361624532;294649;360020;308922;-1361;
2024-05-27T22:49:37.567;540044396379782923;294649;360092;308984;-1301;
2024-05-27T22:49:37.585;540044396397941314;294673;360145;309018;-1322;
2024-05-27T22:49:37.603;540044396416099705;294750;360287;309099;-1284;
2024-05-27T22:49:37.622;540044396434258096;294704;360395;309102;-1312;
2024-05-27T22:49:37.640;540044396452416487;294815;360436;309183;-1334;
2024-05-27T22:49:37.658;540044396470574878;294802;360474;309209;-1374;
2024-05-27T22:49:37.676;540044396488733269;294900;360574;309306;-1348;
2024-05-27T22:49:37.694;540044396506891660;295030;360702;309442;-1311;
2024-05-27T22:49:37.712;540044396525050051;295001;360740;309531;-1296;
2024-05-27T22:49:37.731;540044396543208442;295142;360883;309647;-1304;
2024-05-27T22:49:37.749;540044396561366833;295196;360945;309671;-1375;
2024-05-27T22:49:37.767;540044396579525224;295246;361181;309793;-1325;
2024-05-27T22:49:37.785;540044396597683615;295302;361290;309868;-1271;
2024-05-27T22:49:37.803;540044396615842006;295294;361257;309856;-1353;
2024-05-27T22:49:37.821;540044396634000397;295168;361162;309803;-1301;
2024-05-27T22:49:37.839;540044396652158788;294945;360906;309596;-1361;
2024-05-27T22:49:37.858;540044396670317179;294689;360672;309402;-1364;
2024-05-27T22:49:37.876;540044396688475570;294444;360413;309186;-1307;
2024-05-27T22:49:37.894;540044396706633961;294193;360118;308938;-1299;
2024-05-27T22:49:37.912;540044396724792352;293977;359967;308728;-1306;
2024-05-27T22:49:37.930;540044396742950743;293873;359909;308633;-1330;
2024-05-27T22:49:37.948;540044396761109134;293711;359852;308526;-1323;
2024-05-27T22:49:37.967;540044396779267525;293759;359907;308551;-1316;
2024-05-27T22:49:37.985;540044396797425916;293770;359868;308628;-1316;
2024-05-27T22:49:38.003;540044396815584307;293791;359987;308673;-1328;
2024-05-27T22:49:38.021;540044396833742698;293911;360129;308688;-1343;
2024-05-27T22:49:38.039;540044396851901089;293981;360233;308828;-1277;
2024-05-27T22:49:38.057;540044396870059480;294092;360392;308945;-1336;
2024-05-27T22:49:38.076;540044396888217871;294167;360519;309073;-1291;
2024-05-27T22:49:38.094;540044396906376262;294274;360640;309177;-1282;
2024-05-27T22:49:38.112;540044396924534653;294370;360696;309218;-1340;
2024-05-27T22:49:38.130;540044396942693044;294402;360777;309263;-1334;
2024-05-27T22:49:38.148;540044396960851435;294379;360817;309303;-1328;
2024-05-27T22:49:38.166;540044396979009826;294392;360835;309306;-1312;
2024-05-27T22:49:38.184;540044396997168217;294456;360843;309362;-1300;
2024-05-27T22:49:38.203;540044397015326608;294448;360934;309390;-1310;
2024-05-27T22:49:38.221;540044397033484818;294499;361000;309419;-1320;
2024-05-27T22:49:38.239;540044397051643028;294502;361053;309425;-1337;
2024-05-27T22:49:38.257;540044397069801238;294606;361156;309481;-1310;
2024-05-27T22:49:38.275;540044397087959448;294562;361150;309530;-1376;
2024-05-27T22:49:38.293;540044397106117658;294674;361238;309600;-1276;
2024-05-27T22:49:38.312;540044397124275868;294664;361343;309583;-1309;
2024-05-27T22:49:38.330;540044397142434078;294648;361401;309641;-1360;
2024-05-27T22:49:38.348;540044397160592288;294792;361430;309715;-1357;
2024-05-27T22:49:38.366;540044397178750498;294790;361513;309804;-1393;
2024-05-27T22:49:38.384;540044397196908708;294851;361622;309880;-1333;
2024-05-27T22:49:38.402;540044397215066918;294963;361761;310001;-1359;
2024-05-27T22:49:38.421;540044397233225128;295053;361811;310021;-1345;
2024-05-27T22:49:38.439;540044397251383338;295071;361939;310104;-1318;
2024-05-27T22:49:38.457;540044397269541548;295143;362046;310153;-1325;
2024-05-27T22:49:38.475;540044397287699758;295244;362177;310242;-1304;
2024-05-27T22:49:38.493;540044397305857968;295196;362207;310225;-1267;
2024-05-27T22:49:38.511;540044397324016178;295113;362067;310226;-1263;
2024-05-27T22:49:38.529;540044397342174388;294959;361908;310037;-1277;
2024-05-27T22:49:38.548;540044397360332598;294792;361644;309864;-1299;
2024-05-27T22:49:38.566;540044397378490808;294604;361368;309686;-1318;
2024-05-27T22:49:38.584;540044397396649018;294370;361206;309484;-1329;
2024-05-27T22:49:38.602;540044397414807228;294213;361185;309402;-1316;
2024-05-27T22:49:38.620;540044397432965438;294061;361116;309315;-1318;
2024-05-27T22:49:38.638;540044397451123648;294076;361062;309278;-1285;
2024-05-27T22:49:38.657;540044397469281858;294093;361080;309323;-1301;
2024-05-27T22:49:38.675;540044397487440068;294111;361136;309335;-1336;
2024-05-27T22:49:38.693;540044397505598278;294252;361323;309459;-1290;
2024-05-27T22:49:38.711;540044397523756488;294247;361391;309575;-1386;
2024-05-27T22:49:38.729;540044397541914698;294400;361546;309669;-1317;
2024-05-27T22:49:38.747;540044397560072908;294457;361629;309745;-1328;
2024-05-27T22:49:38.766;540044397578231118;294536;361693;309816;-1383;
2024-05-27T22:49:38.784;540044397596389328;294648;361804;309935;-1369;
2024-05-27T22:49:38.802;540044397614547538;294658;361861;309969;-1390;
2024-05-27T22:49:38.820;540044397632705748;294743;361956;309974;-1372;
2024-05-27T22:49:38.838;540044397650863958;294810;362055;310128;-1347;
2024-05-27T22:49:38.856;540044397669022168;294863;362124;310162;-1304;
2024-05-27T22:49:38.874;540044397687180378;294911;362178;310139;-1322;
2024-05-27T22:49:38.893;540044397705338588;294897;362217;310194;-1339;
2024-05-27T22:49:38.911;540044397723496798;294963;362328;310237;-1389;
2024-05-27T22:49:38.929;540044397741655008;294935;362356;310291;-1379;
2024-05-27T22:49:38.947;540044397759813218;295031;362367;310394;-1371;
2024-05-27T22:49:38.965;540044397777971428;295142;362431;310390;-1362;
2024-05-27T22:49:38.983;540044397796131101;295192;362572;310497;-1309;
2024-05-27T22:49:39.002;540044397814290764;295200;362597;310462;-1314;
2024-05-27T22:49:39.020;540044397832450427;295235;362651;310501;-1310;
2024-05-27T22:49:39.038;540044397850610090;295245;362674;310550;-1369;
2024-05-27T22:49:39.056;540044397868769753;295342;362832;310666;-1302;
2024-05-27T22:49:39.074;540044397886929416;295423;362925;310752;-1288;
2024-05-27T22:49:39.092;540044397905089079;295495;362964;310812;-1358;
2024-05-27T22:49:39.111;540044397923248742;295574;363043;310886;-1299;
2024-05-27T22:49:39.129;540044397941408405;295609;363145;310919;-1335;
2024-05-27T22:49:39.147;540044397959568068;295617;363153;310947;-1271;
2024-05-27T22:49:39.165;540044397977727731;295475;363093;310858;-1306;
2024-05-27T22:49:39.183;540044397995887394;295266;362909;310668;-1344;
2024-05-27T22:49:39.201;540044398014047057;295211;362722;310597;-1405;
2024-05-27T22:49:39.220;540044398032206720;295018;362571;310393;-1380;
2024-05-27T22:49:39.238;540044398050366383;294894;362483;310370;-1383;
2024-05-27T22:49:39.256;540044398068526046;294818;362513;310330;-1342;
2024-05-27T22:49:39.274;540044398086685709;294831;362478;310299;-1347;
2024-05-27T22:49:39.292;540044398104845372;294858;362505;310309;-1325;
2024-05-27T22:49:39.310;540044398123005035;294937;362599;310471;-1320;
2024-05-27T22:49:39.328;540044398141164698;295033;362725;310512;-1314;
2024-05-27T22:49:39.347;540044398159324361;295139;362843;310652;-1297;
2024-05-27T22:49:39.365;540044398177484024;295245;363039;310785;-1291;
2024-05-27T22:49:39.383;540044398195643687;295407;363112;310913;-1338;
2024-05-27T22:49:39.401;540044398213803350;295552;363251;311040;-1321;
2024-05-27T22:49:39.419;540044398231963013;295622;363431;311119;-1373;
2024-05-27T22:49:39.437;540044398250122676;295707;363539;311239;-1344;
2024-05-27T22:49:39.456;540044398268282339;295860;363675;311298;-1352;
2024-05-27T22:49:39.474;540044398286442002;295957;363767;311344;-1360;
2024-05-27T22:49:39.492;540044398304601665;296024;363827;311434;-1386;
2024-05-27T22:49:39.510;540044398322761328;296077;363933;311463;-1352;
2024-05-27T22:49:39.528;540044398340920991;296147;364006;311583;-1287;
2024-05-27T22:49:39.546;540044398359080654;296167;364093;311621;-1355;
2024-05-27T22:49:39.565;540044398377240317;296263;364100;311757;-1316;
2024-05-27T22:49:39.583;540044398395399980;296356;364240;311758;-1317;
2024-05-27T22:49:39.601;540044398413559643;296399;364328;311874;-1321;
2024-05-27T22:49:39.619;540044398431719306;296451;364439;311934;-1357;
2024-05-27T22:49:39.637;540044398449878969;296486;364507;311997;-1330;
2024-05-27T22:49:39.655;540044398468038632;296542;364568;312026;-1335;
2024-05-27T22:49:39.674;540044398486198295;296642;364678;312139;-1328;
2024-05-27T22:49:39.692;540044398504357958;296718;364708;312159;-1322;
2024-05-27T22:49:39.710;540044398522517621;296760;364781;312255;-1336;
2024-05-27T22:49:39.728;540044398540677284;296865;364904;312332;-1306;
2024-05-27T22:49:39.746;540044398558834674;296858;364932;312378;-1318;
2024-05-27T22:49:39.764;540044398576992048;296965;365037;312411;-1316;
2024-05-27T22:49:39.782;540044398595149422;297002;365052;312439;-1300;
2024-05-27T22:49:39.801;540044398613306796;296944;364942;312370;-1334;
2024-05-27T22:49:39.819;540044398631464170;296810;364773;312253;-1289;
2024-05-27T22:49:39.837;540044398649621544;296521;364555;312049;-1329;
2024-05-27T22:49:39.855;540044398667778918;296383;364260;311834;-1304;
2024-05-27T22:49:39.873;540044398685936292;296160;364062;311668;-1328;
2024-05-27T22:49:39.891;540044398704093666;296020;363888;311487;-1308;
2024-05-27T22:49:39.910;540044398722251040;295860;363781;311368;-1313;
2024-05-27T22:49:39.928;540044398740408414;295829;363736;311371;-1347;
2024-05-27T22:49:39.946;540044398758565788;295857;363705;311385;-1305;
2024-05-27T22:49:39.964;540044398776723162;295860;363693;311401;-1305;
2024-05-27T22:49:39.982;540044398794880536;295916;363768;311506;-1280;
2024-05-27T22:49:40.000;540044398813037910;295995;363885;311517;-1322;
2024-05-27T22:49:40.019;540044398831195284;296034;363899;311639;-1296;
2024-05-27T22:49:40.037;540044398849352658;296112;363972;311735;-1242;
2024-05-27T22:49:40.055;540044398867510032;296233;364119;311744;-1313;
2024-05-27T22:49:40.073;540044398885667406;296310;364189;311791;-1321;
2024-05-27T22:49:40.091;540044398903824780;296389;364320;311938;-1309;
2024-05-27T22:49:40.109;540044398921982154;296461;364295;311956;-1296;
2024-05-27T22:49:40.127;540044398940139528;296464;364316;311945;-1287;
2024-05-27T22:49:40.146;540044398958296902;296466;364416;311977;-1308;
2024-05-27T22:49:40.164;540044398976454276;296514;364446;312122;-1299;
2024-05-27T22:49:40.182;540044398994611650;296548;364563;312069;-1319;
2024-05-27T22:49:40.200;540044399012769024;296542;364565;312044;-1345;
2024-05-27T22:49:40.218;540044399030926398;296679;364605;312116;-1242;
2024-05-27T22:49:40.236;540044399049083772;296719;364613;312172;-1286;
2024-05-27T22:49:40.255;540044399067241146;296745;364587;312221;-1270;
2024-05-27T22:49:40.273;540044399085398520;296773;364697;312262;-1297;
2024-05-27T22:49:40.291;540044399103555894;296816;364731;312256;-1274;
2024-05-27T22:49:40.309;540044399121713268;296847;364836;312341;-1257;
2024-05-27T22:49:40.327;540044399139870642;296980;364898;312439;-1227;
2024-05-27T22:49:40.345;540044399158028016;296996;364907;312459;-1244;
2024-05-27T22:49:40.363;540044399176185390;297062;365012;312506;-1295;
2024-05-27T22:49:40.382;540044399194342764;297156;365106;312573;-1295;
2024-05-27T22:49:40.400;540044399212500138;297220;365142;312649;-1276;
2024-05-27T22:49:40.418;540044399230657512;297180;365159;312695;-1268;
2024-05-27T22:49:40.436;540044399248814886;297175;365197;312675;-1249;
2024-05-27T22:49:40.454;540044399266972260;297075;364993;312602;-1270;
2024-05-27T22:49:40.472;540044399285129634;296905;364765;312414;-1308;
2024-05-27T22:49:40.491;540044399303287008;296650;364572;312178;-1378;
2024-05-27T22:49:40.509;540044399321444820;296569;364379;312095;-1279;
2024-05-27T22:49:40.527;540044399339602593;296429;364214;311942;-1331;
2024-05-27T22:49:40.545;540044399357760366;296434;364096;311946;-1289;
2024-05-27T22:49:40.563;540044399375918139;296367;364043;311912;-1337;
2024-05-27T22:49:40.581;540044399394075912;296349;364032;311937;-1319;
2024-05-27T22:49:40.600;540044399412233685;296347;364074;311930;-1400;
2024-05-27T22:49:40.618;540044399430391458;296486;364192;312046;-1266;
2024-05-27T22:49:40.636;540044399448549231;296550;364261;312036;-1309;
2024-05-27T22:49:40.654;540044399466707004;296614;364314;312135;-1283;
2024-05-27T22:49:40.672;540044399484864777;296729;364426;312247;-1272;
2024-05-27T22:49:40.690;540044399503022550;296883;364547;312286;-1328;
2024-05-27T22:49:40.708;540044399521180323;296953;364670;312388;-1311;
2024-05-27T22:49:40.727;540044399539338096;296932;364678;312486;-1336;
2024-05-27T22:49:40.745;540044399557495869;297034;364763;312521;-1282;
2024-05-27T22:49:40.763;540044399575653642;297138;364799;312589;-1272;
2024-05-27T22:49:40.781;540044399593811415;297255;364939;312668;-1268;
2024-05-27T22:49:40.799;540044399611969188;297215;364991;312729;-1310;
2024-05-27T22:49:40.817;540044399630126961;297294;364994;312729;-1267;
2024-05-27T22:49:40.836;540044399648284734;297368;365074;312826;-1280;
2024-05-27T22:49:40.854;540044399666442507;297369;365144;312844;-1308;
2024-05-27T22:49:40.872;540044399684600280;297447;365164;312873;-1318;
2024-05-27T22:49:40.890;540044399702758053;297547;365283;312977;-1286;
2024-05-27T22:49:40.908;540044399720915826;297582;365321;313042;-1310;
2024-05-27T22:49:40.926;540044399739073599;297550;365327;313066;-1329;
2024-05-27T22:49:40.945;540044399757231372;297643;365427;313137;-1357;
2024-05-27T22:49:40.963;540044399775389145;297764;365560;313240;-1292;
2024-05-27T22:49:40.981;540044399793546918;297803;365610;313290;-1368;
2024-05-27T22:49:40.999;540044399811704691;297914;365658;313372;-1353;
2024-05-27T22:49:41.017;540044399829862464;297972;365760;313378;-1385;
2024-05-27T22:49:41.035;540044399848020237;298059;365817;313451;-1348;
2024-05-27T22:49:41.053;540044399866178010;298066;365854;313494;-1364;
2024-05-27T22:49:41.072;540044399884335783;298152;366007;313597;-1333;
2024-05-27T22:49:41.090;540044399902493556;298226;366038;313685;-1324;
2024-05-27T22:49:41.108;540044399920651329;298236;366045;313686;-1316;
2024-05-27T22:49:41.126;540044399938809102;298118;365843;313517;-1345;
2024-05-27T22:49:41.144;540044399956966875;297962;365646;313406;-1286;
2024-05-27T22:49:41.162;540044399975124648;297760;365340;313204;-1331;
2024-05-27T22:49:41.181;540044399993282421;297613;365302;313114;-1333;
2024-05-27T22:49:41.199;540044400011440194;297541;365094;312967;-1325;
2024-05-27T22:49:41.217;540044400029597967;297493;364920;312918;-1314;
2024-05-27T22:49:41.235;540044400047755740;297406;364853;312894;-1340;
2024-05-27T22:49:41.253;540044400065913513;297404;364830;312889;-1297;
2024-05-27T22:49:41.271;540044400084073023;297389;364760;312887;-1324;
2024-05-27T22:49:41.290;540044400102232504;297488;364843;312922;-1300;
2024-05-27T22:49:41.308;540044400120391985;297564;364929;312999;-1318;
2024-05-27T22:49:41.326;540044400138551466;297608;364934;313077;-1325;
2024-05-27T22:49:41.344;540044400156710947;297664;364973;313125;-1304;
2024-05-27T22:49:41.362;540044400174870428;297747;365088;313184;-1330;
2024-05-27T22:49:41.380;540044400193029909;297799;365155;313155;-1345;
2024-05-27T22:49:41.398;540044400211189390;297888;365256;313289;-1376;
2024-05-27T22:49:41.417;540044400229348871;297894;365245;313251;-1400;
2024-05-27T22:49:41.435;540044400247508352;297913;365332;313358;-1376;
2024-05-27T22:49:41.453;540044400265667833;297977;365291;313392;-1368;
2024-05-27T22:49:41.471;540044400283827314;297999;365397;313450;-1322;
2024-05-27T22:49:41.489;540044400301986795;298025;365433;313441;-1343;
2024-05-27T22:49:41.507;540044400320146276;298050;365440;313459;-1350;
2024-05-27T22:49:41.526;540044400338305757;298090;365372;313407;-1293;
2024-05-27T22:49:41.544;540044400356465238;298190;365439;313485;-1242;
2024-05-27T22:49:41.562;540044400374624719;298153;365458;313473;-1299;
2024-05-27T22:49:41.580;540044400392784200;298185;365440;313545;-1353;
2024-05-27T22:49:41.598;540044400410943681;298246;365583;313588;-1348;
2024-05-27T22:49:41.616;540044400429103162;298224;365553;313643;-1369;
2024-05-27T22:49:41.635;540044400447262643;298264;365673;313630;-1350;
2024-05-27T22:49:41.653;540044400465422124;298347;365719;313652;-1306;
2024-05-27T22:49:41.671;540044400483581605;298446;365747;313741;-1337;
2024-05-27T22:49:41.689;540044400501741086;298484;365817;313789;-1383;
2024-05-27T22:49:41.707;540044400519900567;298540;365855;313892;-1327;
2024-05-27T22:49:41.725;540044400538060048;298525;365792;313904;-1347;
2024-05-27T22:49:41.744;540044400556219529;298454;365761;313796;-1313;
2024-05-27T22:49:41.762;540044400574379010;298312;365608;313741;-1352;
2024-05-27T22:49:41.780;540044400592538491;298232;365387;313616;-1302;
2024-05-27T22:49:41.798;540044400610697972;298122;365166;313513;-1317;
2024-05-27T22:49:41.816;540044400628857453;297993;365084;313345;-1295;
2024-05-27T22:49:41.834;540044400647016934;297941;364916;313258;-1291;
2024-05-27T22:49:41.852;540044400665176415;297900;364887;313225;-1302;
2024-05-27T22:49:41.871;540044400683335896;297925;364769;313262;-1276;
2024-05-27T22:49:41.889;540044400701495377;297946;364807;313279;-1302;
2024-05-27T22:49:41.907;540044400719654858;298020;364837;313257;-1329;
2024-05-27T22:49:41.925;540044400737814339;298073;364892;313370;-1290;
2024-05-27T22:49:41.943;540044400755973820;298061;364936;313387;-1372;
2024-05-27T22:49:41.961;540044400774133301;298202;365059;313450;-1296;
2024-05-27T22:49:41.980;540044400792292782;298253;365149;313550;-1351;
2024-05-27T22:49:41.998;540044400810452263;298342;365262;313664;-1269;
2024-05-27T22:49:42.016;540044400828611744;298440;365220;313677;-1273;
2024-05-27T22:49:42.034;540044400846770346;298449;365336;313760;-1266;
2024-05-27T22:49:42.052;540044400864928937;298448;365349;313756;-1343;
2024-05-27T22:49:42.070;540044400883087528;298505;365390;313793;-1324;
2024-05-27T22:49:42.089;540044400901246119;298566;365450;313774;-1291;
2024-05-27T22:49:42.107;540044400919404710;298610;365422;313888;-1249;
2024-05-27T22:49:42.125;540044400937563301;298646;365482;313871;-1246;
2024-05-27T22:49:42.143;540044400955721892;298656;365457;313823;-1284;
2024-05-27T22:49:42.161;540044400973880483;298715;365550;313902;-1274;
2024-05-27T22:49:42.179;540044400992039074;298768;365611;313981;-1306;
2024-05-27T22:49:42.198;540044401010197665;298698;365655;313961;-1343;
2024-05-27T22:49:42.216;540044401028356256;298782;365674;314023;-1293;
2024-05-27T22:49:42.234;540044401046514847;298850;365660;314082;-1330;
2024-05-27T22:49:42.252;540044401064673438;298956;365709;314101;-1273;
2024-05-27T22:49:42.270;540044401082832029;298860;365787;314127;-1353;
2024-05-27T22:49:42.288;540044401100990620;298903;365815;314166;-1354;
2024-05-27T22:49:42.306;540044401119149211;298975;365865;314228;-1252;
2024-05-27T22:49:42.325;540044401137307802;299021;365936;314279;-1283;
2024-05-27T22:49:42.343;540044401155466393;299005;365919;314274;-1267;
2024-05-27T22:49:42.361;540044401173624984;298918;365706;314148;-1311;
2024-05-27T22:49:42.379;540044401191783575;298798;365562;314064;-1338;
2024-05-27T22:49:42.397;540044401209942166;298717;365412;313929;-1322;
2024-05-27T22:49:42.415;540044401228100757;298664;365282;313870;-1314;
2024-05-27T22:49:42.434;540044401246259348;298630;365143;313754;-1328;
2024-05-27T22:49:42.452;540044401264417939;298645;365158;313805;-1284;
2024-05-27T22:49:42.470;540044401282576530;298590;365101;313896;-1320;
2024-05-27T22:49:42.488;540044401300735121;298618;365079;313860;-1321;
2024-05-27T22:49:42.506;540044401318893712;298784;365166;313959;-1336;
2024-05-27T22:49:42.524;540044401337052303;298839;365314;314101;-1290;
2024-05-27T22:49:42.543;540044401355210894;298997;365418;314144;-1285;
2024-05-27T22:49:42.561;540044401373369485;299116;365582;314312;-1269;
2024-05-27T22:49:42.579;540044401391528076;299231;365772;314411;-1321;
2024-05-27T22:49:42.597;540044401409686667;299310;365900;314507;-1344;
2024-05-27T22:49:42.615;540044401427845258;299406;366062;314618;-1284;
2024-05-27T22:49:42.633;540044401446003849;299519;366127;314707;-1320;
2024-05-27T22:49:42.651;540044401464162440;299594;366176;314781;-1271;
2024-05-27T22:49:42.670;540044401482321031;299646;366283;314834;-1304;
2024-05-27T22:49:42.688;540044401500479622;299750;366338;314952;-1285;
2024-05-27T22:49:42.706;540044401518638213;299803;366424;315049;-1328;
2024-05-27T22:49:42.724;540044401536796804;299886;366516;315065;-1326;
2024-05-27T22:49:42.742;540044401554955395;299858;366515;315115;-1350;
2024-05-27T22:49:42.760;540044401573113986;299917;366500;315084;-1351;
2024-05-27T22:49:42.779;540044401591272577;299984;366633;315198;-1327;
2024-05-27T22:49:42.797;540044401609431168;300112;366718;315285;-1286;
2024-05-27T22:49:42.815;540044401627589759;300131;366729;315323;-1318;
2024-05-27T22:49:42.833;540044401645748305;300232;366849;315393;-1299;
2024-05-27T22:49:42.851;540044401663906842;300301;366905;315410;-1333;
2024-05-27T22:49:42.869;540044401682065379;300362;366950;315432;-1362;
2024-05-27T22:49:42.888;540044401700223916;300400;366993;315449;-1341;
2024-05-27T22:49:42.906;540044401718382453;300366;367085;315533;-1338;
2024-05-27T22:49:42.924;540044401736540990;300471;367124;315619;-1297;
2024-05-27T22:49:42.942;540044401754699527;300479;367053;315581;-1328;
2024-05-27T22:49:42.960;540044401772858064;300357;366870;315472;-1300;
2024-05-27T22:49:42.978;540044401791016601;300171;366579;315275;-1279;
2024-05-27T22:49:42.996;540044401809175138;299975;366362;315104;-1304;
2024-05-27T22:49:43.015;540044401827333675;299843;366081;314945;-1285;
2024-05-27T22:49:43.033;540044401845492212;299726;365850;314788;-1311;
2024-05-27T22:49:43.051;540044401863650749;299623;365660;314695;-1310;
2024-05-27T22:49:43.069;540044401881809286;299558;365567;314551;-1381;
2024-05-27T22:49:43.087;540044401899967823;299542;365530;314510;-1322;
2024-05-27T22:49:43.105;540044401918126360;299540;365510;314541;-1346;
2024-05-27T22:49:43.124;540044401936284897;299563;365532;314542;-1326;
2024-05-27T22:49:43.142;540044401954443434;299581;365543;314566;-1323;
2024-05-27T22:49:43.160;540044401972601971;299687;365596;314659;-1339;
2024-05-27T22:49:43.178;540044401990760508;299815;365697;314729;-1295;
2024-05-27T22:49:43.196;540044402008919045;299786;365756;314811;-1294;
2024-05-27T22:49:43.214;540044402027077582;299861;365849;314821;-1299;
2024-05-27T22:49:43.233;540044402045236119;299880;365889;314810;-1273;
2024-05-27T22:49:43.251;540044402063394656;299918;365944;314877;-1329;
2024-05-27T22:49:43.269;540044402081553193;299988;366041;314934;-1269;
2024-05-27T22:49:43.287;540044402099711730;300006;366003;314988;-1291;
2024-05-27T22:49:43.305;540044402117870267;300022;366041;315003;-1265;
2024-05-27T22:49:43.323;540044402136028804;300032;366039;314951;-1324;
2024-05-27T22:49:43.341;540044402154187341;300049;365999;314982;-1320;
2024-05-27T22:49:43.360;540044402172345878;300018;366073;315053;-1251;
2024-05-27T22:49:43.378;540044402190504415;300156;366095;315064;-1280;
2024-05-27T22:49:43.396;540044402208662952;300120;366025;315051;-1294;
2024-05-27T22:49:43.414;540044402226821489;300117;366055;315093;-1290;
2024-05-27T22:49:43.432;540044402244980026;300133;366101;315131;-1335;
2024-05-27T22:49:43.450;540044402263138563;300174;366117;315137;-1369;
2024-05-27T22:49:43.469;540044402281297100;300197;366240;315175;-1344;
2024-05-27T22:49:43.487;540044402299455637;300266;366240;315191;-1286;
2024-05-27T22:49:43.505;540044402317614174;300285;366246;315233;-1314;
2024-05-27T22:49:43.523;540044402335772711;300320;366325;315231;-1322;
2024-05-27T22:49:43.541;540044402353931248;300280;366142;315221;-1312;
2024-05-27T22:49:43.559;540044402372089785;300200;366043;315084;-1275;
2024-05-27T22:49:43.578;540044402390248322;300069;365721;314901;-1320;
2024-05-27T22:49:43.596;540044402408406532;299876;365468;314667;-1309;
2024-05-27T22:49:43.614;540044402426564742;299605;365132;314410;-1312;
2024-05-27T22:49:43.632;540044402444722952;299493;364867;314285;-1312;
2024-05-27T22:49:43.650;540044402462881162;299473;364719;314145;-1329;
2024-05-27T22:49:43.668;540044402481039372;299387;364585;314082;-1351;
2024-05-27T22:49:43.687;540044402499197582;299314;364516;314043;-1307;
2024-05-27T22:49:43.705;540044402517355792;299307;364475;313984;-1288;
2024-05-27T22:49:43.723;540044402535514002;299322;364443;313962;-1351;
2024-05-27T22:49:43.741;540044402553672212;299395;364526;314065;-1288;
2024-05-27T22:49:43.759;540044402571830422;299417;364544;314050;-1319;
2024-05-27T22:49:43.777;540044402589988632;299491;364764;314207;-1326;
2024-05-27T22:49:43.795;540044402608146842;299581;364832;314274;-1296;
2024-05-27T22:49:43.814;540044402626305052;299568;364864;314283;-1311;
2024-05-27T22:49:43.832;540044402644463262;299639;364934;314357;-1319;
2024-05-27T22:49:43.850;540044402662621472;299688;365036;314414;-1353;
2024-05-27T22:49:43.868;540044402680779682;299699;364979;314410;-1311;
2024-05-27T22:49:43.886;540044402698937892;299713;365038;314431;-1312;
2024-05-27T22:49:43.904;540044402717096102;299763;365009;314521;-1308;
2024-05-27T22:49:43.923;540044402735254312;299775;365066;314503;-1286;
2024-05-27T22:49:43.941;540044402753412522;299834;365098;314540;-1293;
2024-05-27T22:49:43.959;540044402771570732;299835;365076;314505;-1325;
2024-05-27T22:49:43.977;540044402789728942;299859;365137;314497;-1345;
2024-05-27T22:49:43.995;540044402807887152;299918;365159;314531;-1265;
2024-05-27T22:49:44.013;540044402826045362;299949;365214;314541;-1323;
2024-05-27T22:49:44.032;540044402844203572;299963;365243;314554;-1253;
2024-05-27T22:49:44.050;540044402862361782;299954;365208;314622;-1335;
2024-05-27T22:49:44.068;540044402880519992;299984;365224;314599;-1326;
2024-05-27T22:49:44.086;540044402898678202;300107;365360;314685;-1302;
2024-05-27T22:49:44.104;540044402916836412;300177;365343;314736;-1307;
2024-05-27T22:49:44.122;540044402934994622;300194;365405;314735;-1343;
2024-05-27T22:49:44.140;540044402953152832;300164;365351;314776;-1325;
2024-05-27T22:49:44.159;540044402971311042;300055;365295;314714;-1307;
2024-05-27T22:49:44.177;540044402989469252;299962;365080;314516;-1269;
2024-05-27T22:49:44.195;540044403007627462;299742;364763;314349;-1257;
2024-05-27T22:49:44.213;540044403025785672;299575;364493;314134;-1250;
2024-05-27T22:49:44.231;540044403043943882;299474;364213;313922;-1294;
2024-05-27T22:49:44.249;540044403062102092;299345;364021;313694;-1280;
2024-05-27T22:49:44.268;540044403080260302;299142;363773;313626;-1335;
2024-05-27T22:49:44.286;540044403098418512;299146;363684;313537;-1328;
2024-05-27T22:49:44.304;540044403116576722;299085;363606;313465;-1270;
2024-05-27T22:49:44.322;540044403134734932;299103;363658;313506;-1272;
2024-05-27T22:49:44.340;540044403152893142;299071;363693;313472;-1293;
2024-05-27T22:49:44.358;540044403171052704;299190;363726;313497;-1274;
2024-05-27T22:49:44.377;540044403189212262;299268;363772;313547;-1313;
2024-05-27T22:49:44.395;540044403207371820;299319;363934;313605;-1259;
2024-05-27T22:49:44.413;540044403225531378;299378;363987;313663;-1305;
2024-05-27T22:49:44.431;540044403243690936;299425;363981;313740;-1312;
2024-05-27T22:49:44.449;540044403261850494;299466;364070;313739;-1331;
2024-05-27T22:49:44.467;540044403280010052;299454;364052;313759;-1291;
2024-05-27T22:49:44.485;540044403298169610;299491;364021;313728;-1334;
2024-05-27T22:49:44.504;540044403316329168;299520;364070;313733;-1288;
2024-05-27T22:49:44.522;540044403334488726;299553;364102;313792;-1279;
2024-05-27T22:49:44.540;540044403352648284;299563;364101;313769;-1321;
2024-05-27T22:49:44.558;540044403370807842;299513;364141;313763;-1293;
2024-05-27T22:49:44.576;540044403388967400;299529;364080;313749;-1293;
2024-05-27T22:49:44.594;540044403407126958;299458;364041;313711;-1318;
2024-05-27T22:49:44.613;540044403425286516;299558;364094;313777;-1304;
2024-05-27T22:49:44.631;540044403443446074;299500;364125;313784;-1275;
2024-05-27T22:49:44.649;540044403461605632;299487;364196;313793;-1331;
2024-05-27T22:49:44.667;540044403479765190;299639;364230;313852;-1304;
2024-05-27T22:49:44.685;540044403497924748;299666;364260;313857;-1320;
2024-05-27T22:49:44.703;540044403516084306;299627;364251;313886;-1282;
2024-05-27T22:49:44.722;540044403534243864;299678;364323;313888;-1379;
2024-05-27T22:49:44.740;540044403552403422;299703;364360;313902;-1324;
2024-05-27T22:49:44.758;540044403570562980;299731;364386;313859;-1339;
2024-05-27T22:49:44.776;540044403588722538;299680;364302;313872;-1348;
2024-05-27T22:49:44.794;540044403606882096;299489;364097;313659;-1324;
2024-05-27T22:49:44.812;540044403625041654;299301;363755;313465;-1347;
2024-05-27T22:49:44.831;540044403643201212;299098;363441;313233;-1394;
2024-05-27T22:49:44.849;540044403661360770;298873;363118;312964;-1350;
2024-05-27T22:49:44.867;540044403679520328;298761;362875;312768;-1381;
2024-05-27T22:49:44.885;540044403697679886;298595;362802;312636;-1376;
2024-05-27T22:49:44.903;540044403715839444;298538;362661;312541;-1407;
2024-05-27T22:49:44.921;540044403733999002;298519;362625;312553;-1300;
2024-05-27T22:49:44.939;540044403752158560;298545;362616;312499;-1381;
2024-05-27T22:49:44.958;540044403770318118;298567;362676;312468;-1350;
2024-05-27T22:49:44.976;540044403788477676;298589;362666;312534;-1352;
2024-05-27T22:49:44.994;540044403806637234;298684;362810;312622;-1331;
2024-05-27T22:49:45.012;540044403824796792;298744;362899;312702;-1369;
2024-05-27T22:49:45.030;540044403842956350;298779;362944;312761;-1405;
2024-05-27T22:49:45.048;540044403861115908;298802;363028;312747;-1343;
2024-05-27T22:49:45.067;540044403879275466;298804;363036;312772;-1339;
2024-05-27T22:49:45.085;540044403897435024;298901;363079;312779;-1341;
2024-05-27T22:49:45.103;540044403915594582;298855;363117;312716;-1308;
2024-05-27T22:49:45.121;540044403933754140;298880;363137;312739;-1321;
2024-05-27T22:49:45.139;540044403951911738;298862;363048;312764;-1331;
2024-05-27T22:49:45.157;540044403970069309;298840;363029;312726;-1348;
2024-05-27T22:49:45.176;540044403988226880;298810;363023;312704;-1339;
2024-05-27T22:49:45.194;540044404006384451;298854;363073;312723;-1293;
2024-05-27T22:49:45.212;540044404024542022;298864;363128;312776;-1268;
2024-05-27T22:49:45.230;540044404042699593;298845;363074;312748;-1304;
2024-05-27T22:49:45.248;540044404060857164;298869;363108;312760;-1291;
2024-05-27T22:49:45.266;540044404079014735;298850;363079;312727;-1289;
2024-05-27T22:49:45.284;540044404097172306;298856;363131;312701;-1358;
2024-05-27T22:49:45.303;540044404115329877;298884;363180;312773;-1318;
2024-05-27T22:49:45.321;540044404133487448;298893;363210;312733;-1335;
2024-05-27T22:49:45.339;540044404151645019;298893;363190;312736;-1329;
2024-05-27T22:49:45.357;540044404169802590;298799;363175;312665;-1295;
2024-05-27T22:49:45.375;540044404187960161;298709;363002;312572;-1272;
2024-05-27T22:49:45.393;540044404206117732;298530;362768;312323;-1305;
2024-05-27T22:49:45.412;540044404224275303;298292;362436;312103;-1322;
2024-05-27T22:49:45.430;540044404242432874;298150;362224;311915;-1297;
2024-05-27T22:49:45.448;540044404260590445;298005;361888;311654;-1322;
2024-05-27T22:49:45.466;540044404278748016;297828;361755;311454;-1302;
2024-05-27T22:49:45.484;540044404296905587;297740;361639;311433;-1359;
2024-05-27T22:49:45.502;540044404315063158;297695;361504;311310;-1350;
2024-05-27T22:49:45.521;540044404333220729;297707;361578;311388;-1289;
2024-05-27T22:49:45.539;540044404351378300;297704;361650;311390;-1301;
2024-05-27T22:49:45.557;540044404369535871;297761;361647;311418;-1348;
2024-05-27T22:49:45.575;540044404387693442;297848;361834;311437;-1294;
2024-05-27T22:49:45.593;540044404405851013;297878;361895;311579;-1289;
2024-05-27T22:49:45.611;540044404424008584;298034;362093;311681;-1263;
2024-05-27T22:49:45.629;540044404442166155;298039;362151;311748;-1287;
2024-05-27T22:49:45.648;540044404460323726;298201;362349;311890;-1261;
2024-05-27T22:49:45.666;540044404478481297;298218;362431;311914;-1342;
2024-05-27T22:49:45.684;540044404496638868;298291;362429;311967;-1266;
2024-05-27T22:49:45.702;540044404514796439;298256;362487;311925;-1327;
2024-05-27T22:49:45.720;540044404532954010;298368;362580;312021;-1272;
2024-05-27T22:49:45.738;540044404551111581;298382;362596;311996;-1329;
2024-05-27T22:49:45.757;540044404569269152;298391;362691;312076;-1387;
2024-05-27T22:49:45.775;540044404587426723;298472;362734;312125;-1370;
2024-05-27T22:49:45.793;540044404605584294;298478;362783;312163;-1355;
2024-05-27T22:49:45.811;540044404623741865;298539;362893;312118;-1347;
2024-05-27T22:49:45.829;540044404641899436;298608;362928;312220;-1330;
2024-05-27T22:49:45.847;540044404660057007;298598;363008;312218;-1355;
2024-05-27T22:49:45.866;540044404678214578;298680;363092;312333;-1320;
2024-05-27T22:49:45.884;540044404696372149;298738;363210;312340;-1302;
2024-05-27T22:49:45.902;540044404714529720;298751;363227;312354;-1336;
2024-05-27T22:49:45.920;540044404732687092;298823;363349;312416;-1321;
2024-05-27T22:49:45.938;540044404750844450;298795;363331;312439;-1364;
2024-05-27T22:49:45.956;540044404769001808;298670;363125;312266;-1319;
2024-05-27T22:49:45.974;540044404787159166;298553;362965;312085;-1265;
2024-05-27T22:49:45.993;540044404805316524;298309;362650;311832;-1268;
2024-05-27T22:49:46.011;540044404823473882;298040;362315;311592;-1326;
2024-05-27T22:49:46.029;540044404841631240;297781;361946;311330;-1365;
2024-05-27T22:49:46.047;540044404859788598;297549;361688;311025;-1361;
2024-05-27T22:49:46.065;540044404877945956;297394;361506;310875;-1331;
2024-05-27T22:49:46.083;540044404896103314;297274;361437;310790;-1358;
2024-05-27T22:49:46.102;540044404914260672;297208;361391;310658;-1341;
2024-05-27T22:49:46.120;540044404932418030;297233;361366;310692;-1400;
2024-05-27T22:49:46.138;540044404950575388;297263;361404;310753;-1336;
2024-05-27T22:49:46.156;540044404968732746;297243;361490;310802;-1310;
2024-05-27T22:49:46.174;540044404986890104;297314;361596;310872;-1310;
2024-05-27T22:49:46.192;540044405005047462;297365;361639;310869;-1287;
2024-05-27T22:49:46.211;540044405023204820;297447;361749;310918;-1330;
2024-05-27T22:49:46.229;540044405041362178;297450;361801;310972;-1299;
2024-05-27T22:49:46.247;540044405059519536;297507;361882;310926;-1335;
2024-05-27T22:49:46.265;540044405077676894;297536;361944;310984;-1327;
2024-05-27T22:49:46.283;540044405095834252;297583;361961;311049;-1309;
2024-05-27T22:49:46.301;540044405113991610;297545;361986;311013;-1314;
2024-05-27T22:49:46.319;540044405132148968;297611;362068;311117;-1271;
2024-05-27T22:49:46.338;540044405150306326;297549;362069;311061;-1306;
2024-05-27T22:49:46.356;540044405168463684;297581;362071;311078;-1289;
2024-05-27T22:49:46.374;540044405186621042;297543;362081;311075;-1314;
2024-05-27T22:49:46.392;540044405204778400;297521;362084;311106;-1275;
2024-05-27T22:49:46.410;540044405222935758;297548;362077;311114;-1385;
2024-05-27T22:49:46.428;540044405241093116;297598;362192;311141;-1313;
2024-05-27T22:49:46.447;540044405259250474;297610;362181;311185;-1302;
2024-05-27T22:49:46.465;540044405277407832;297644;362263;311203;-1277;
2024-05-27T22:49:46.483;540044405295565190;297750;362344;311257;-1263;
2024-05-27T22:49:46.501;540044405313722548;297754;362434;311277;-1321;
2024-05-27T22:49:46.519;540044405331879906;297726;362512;311325;-1338;
2024-05-27T22:49:46.537;540044405350037264;297694;362501;311400;-1289;
2024-05-27T22:49:46.556;540044405368194622;297594;362369;311214;-1293;
2024-05-27T22:49:46.574;540044405386351980;297393;362141;311030;-1229;
2024-05-27T22:49:46.592;540044405404509338;297093;361769;310731;-1244;
2024-05-27T22:49:46.610;540044405422666696;296843;361403;310402;-1310;
2024-05-27T22:49:46.628;540044405440824054;296548;361193;310177;-1327;
2024-05-27T22:49:46.646;540044405458981412;296276;360931;309856;-1295;
2024-05-27T22:49:46.664;540044405477138770;296125;360800;309694;-1300;
2024-05-27T22:49:46.683;540044405495296128;296006;360655;309572;-1310;
2024-05-27T22:49:46.701;540044405513454737;296087;360648;309509;-1303;
2024-05-27T22:49:46.719;540044405531613337;296021;360709;309578;-1303;
2024-05-27T22:49:46.737;540044405549771937;296073;360739;309523;-1291;
2024-05-27T22:49:46.755;540044405567930537;296094;360840;309602;-1318;
2024-05-27T22:49:46.773;540044405586089137;296189;360961;309650;-1290;
2024-05-27T22:49:46.792;540044405604247737;296242;361096;309750;-1276;
2024-05-27T22:49:46.810;540044405622406337;296321;361214;309931;-1292;
2024-05-27T22:49:46.828;540044405640564937;296332;361264;309946;-1306;
2024-05-27T22:49:46.846;540044405658723537;296341;361305;309996;-1322;
2024-05-27T22:49:46.864;540044405676882137;296410;361393;310060;-1285;
2024-05-27T22:49:46.882;540044405695040737;296479;361478;310131;-1271;
2024-05-27T22:49:46.901;540044405713199337;296449;361500;310067;-1327;
2024-05-27T22:49:46.919;540044405731357937;296443;361544;310090;-1381;
2024-05-27T22:49:46.937;540044405749516537;296435;361601;310097;-1345;
2024-05-27T22:49:46.955;540044405767675137;296454;361616;310106;-1336;
2024-05-27T22:49:46.973;540044405785833737;296441;361613;310065;-1325;
2024-05-27T22:49:46.991;540044405803992337;296480;361690;310148;-1307;
2024-05-27T22:49:47.009;540044405822150937;296529;361725;310154;-1316;
2024-05-27T22:49:47.028;540044405840309537;296516;361822;310245;-1374;
2024-05-27T22:49:47.046;540044405858468137;296553;361903;310267;-1324;
2024-05-27T22:49:47.064;540044405876626737;296655;362024;310320;-1342;
2024-05-27T22:49:47.082;540044405894785337;296659;362107;310324;-1354;
2024-05-27T22:49:47.100;540044405912943937;296736;362146;310380;-1375;
2024-05-27T22:49:47.118;540044405931102537;296790;362173;310464;-1300;
2024-05-27T22:49:47.137;540044405949261137;296853;362231;310517;-1318;
2024-05-27T22:49:47.155;540044405967419737;296846;362259;310508;-1330;
2024-05-27T22:49:47.173;540044405985578337;296842;362222;310479;-1355;
2024-05-27T22:49:47.191;540044406003736937;296615;362095;310373;-1393;
2024-05-27T22:49:47.209;540044406021895537;296409;361804;310139;-1362;
2024-05-27T22:49:47.227;540044406040054137;296068;361640;309850;-1327;
2024-05-27T22:49:47.246;540044406058212737;295842;361342;309592;-1331;
2024-05-27T22:49:47.264;540044406076371337;295633;361132;309371;-1337;
2024-05-27T22:49:47.282;540044406094529937;295398;360915;309220;-1341;
2024-05-27T22:49:47.300;540044406112688537;295295;360859;308993;-1309;
2024-05-27T22:49:47.318;540044406130847137;295264;360757;308911;-1364;
2024-05-27T22:49:47.336;540044406149005737;295216;360781;308996;-1310;
2024-05-27T22:49:47.354;540044406167164337;295314;360895;308960;-1309;
2024-05-27T22:49:47.373;540044406185322937;295349;360960;309073;-1288;
2024-05-27T22:49:47.391;540044406203481537;295381;360987;309096;-1357;
2024-05-27T22:49:47.409;540044406221640137;295449;361213;309212;-1303;
2024-05-27T22:49:47.427;540044406239798737;295560;361334;309267;-1302;
2024-05-27T22:49:47.445;540044406257957337;295616;361417;309402;-1368;
2024-05-27T22:49:47.463;540044406276115937;295706;361524;309504;-1309;
2024-05-27T22:49:47.482;540044406294275708;295737;361612;309492;-1314;
2024-05-27T22:49:47.500;540044406312435443;295805;361736;309576;-1325;
2024-05-27T22:49:47.518;540044406330595178;295825;361755;309573;-1346;
2024-05-27T22:49:47.536;540044406348754913;295860;361794;309647;-1344;
2024-05-27T22:49:47.554;540044406366914648;295889;361859;309680;-1350;
2024-05-27T22:49:47.572;540044406385074383;295888;361890;309668;-1294;
2024-05-27T22:49:47.591;540044406403234118;295927;362009;309773;-1271;
2024-05-27T22:49:47.609;540044406421393853;295953;361987;309725;-1341;
2024-05-27T22:49:47.627;540044406439553588;295944;362022;309788;-1368;
2024-05-27T22:49:47.645;540044406457713323;296022;362102;309812;-1276;
2024-05-27T22:49:47.663;540044406475873058;296030;362173;309815;-1324;
2024-05-27T22:49:47.681;540044406494032793;296031;362239;309846;-1313;
2024-05-27T22:49:47.699;540044406512192528;296080;362303;309923;-1311;
2024-05-27T22:49:47.718;540044406530352263;296164;362339;309919;-1312;
2024-05-27T22:49:47.736;540044406548511998;296245;362489;310074;-1279;
2024-05-27T22:49:47.754;540044406566671733;296251;362513;310121;-1309;
2024-05-27T22:49:47.772;540044406584831468;296317;362623;310179;-1293;
2024-05-27T22:49:47.790;540044406602991203;296368;362707;310155;-1275;
2024-05-27T22:49:47.808;540044406621150938;296415;362805;310268;-1286;
2024-05-27T22:49:47.827;540044406639310673;296392;362822;310288;-1351;
2024-05-27T22:49:47.845;540044406657470408;296307;362732;310154;-1343;
2024-05-27T22:49:47.863;540044406675630143;296040;362450;309986;-1286;
2024-05-27T22:49:47.881;540044406693789878;295762;362231;309721;-1391;
2024-05-27T22:49:47.899;540044406711949613;295648;362027;309477;-1393;
2024-05-27T22:49:47.917;540044406730109348;295389;361862;309326;-1304;
2024-05-27T22:49:47.936;540044406748269083;295268;361710;309133;-1342;
2024-05-27T22:49:47.954;540044406766428818;295187;361596;309025;-1300;
2024-05-27T22:49:47.972;540044406784588553;295110;361582;309047;-1311;
2024-05-27T22:49:47.990;540044406802748288;295045;361635;308947;-1288;
2024-05-27T22:49:48.008;540044406820908023;295068;361649;308969;-1291;
2024-05-27T22:49:48.026;540044406839067758;295075;361737;308950;-1287;
2024-05-27T22:49:48.045;540044406857227493;295153;361846;309070;-1294;
2024-05-27T22:49:48.063;540044406875387228;295204;361941;309097;-1341;
2024-05-27T22:49:48.081;540044406893546963;295318;361988;309217;-1312;
2024-05-27T22:49:48.099;540044406911706698;295355;362169;309334;-1301;
2024-05-27T22:49:48.117;540044406929866433;295443;362266;309389;-1337;
2024-05-27T22:49:48.135;540044406948026168;295484;362340;309400;-1344;
2024-05-27T22:49:48.153;540044406966185903;295590;362496;309458;-1326;
2024-05-27T22:49:48.172;540044406984345638;295579;362464;309550;-1355;
2024-05-27T22:49:48.190;540044407002505373;295617;362583;309606;-1313;
2024-05-27T22:49:48.208;540044407020665108;295622;362636;309679;-1300;
2024-05-27T22:49:48.226;540044407038824843;295625;362675;309648;-1323;
2024-05-27T22:49:48.244;540044407056984578;295713;362774;309745;-1299;
2024-05-27T22:49:48.262;540044407075144313;295724;362823;309735;-1348;
2024-05-27T22:49:48.281;540044407093303611;295745;362854;309773;-1347;
2024-05-27T22:49:48.299;540044407111462874;295810;362937;309860;-1306;
2024-05-27T22:49:48.317;540044407129622137;295829;362993;309867;-1338;
2024-05-27T22:49:48.335;540044407147781400;295873;363077;309923;-1338;
2024-05-27T22:49:48.353;540044407165940663;295909;363098;309943;-1361;
2024-05-27T22:49:48.371;540044407184099926;295961;363192;310036;-1305;
2024-05-27T22:49:48.390;540044407202259189;296002;363280;310033;-1309;
2024-05-27T22:49:48.408;540044407220418452;296097;363355;310148;-1341;
2024-05-27T22:49:48.426;540044407238577715;296155;363490;310188;-1285;
2024-05-27T22:49:48.444;540044407256736978;296195;363506;310248;-1358;
2024-05-27T22:49:48.462;540044407274896241;296302;363597;310274;-1351;
2024-05-27T22:49:48.480;540044407293055504;296339;363629;310293;-1290;
2024-05-27T22:49:48.499;540044407311214767;296125;363544;310231;-1305;
2024-05-27T22:49:48.517;540044407329374030;296034;363345;310097;-1303;
2024-05-27T22:49:48.535;540044407347533293;295857;363264;309862;-1309;
2024-05-27T22:49:48.553;540044407365692556;295668;363149;309756;-1347;
2024-05-27T22:49:48.571;540044407383851819;295514;363070;309616;-1309;
2024-05-27T22:49:48.589;540044407402011082;295415;362975;309443;-1357;
2024-05-27T22:49:48.607;540044407420170345;295418;362947;309391;-1273;
2024-05-27T22:49:48.626;540044407438329608;295349;362957;309341;-1374;
2024-05-27T22:49:48.644;540044407456488871;295355;363047;309400;-1405;
2024-05-27T22:49:48.662;540044407474648134;295518;363049;309483;-1358;
2024-05-27T22:49:48.680;540044407492807397;295598;363245;309573;-1342;
2024-05-27T22:49:48.698;540044407510966660;295631;363350;309710;-1327;
2024-05-27T22:49:48.716;540044407529125923;295784;363460;309848;-1297;
2024-05-27T22:49:48.735;540044407547285186;295894;363688;309944;-1331;
2024-05-27T22:49:48.753;540044407565444449;295929;363743;309970;-1328;
2024-05-27T22:49:48.771;540044407583603712;296049;363893;310084;-1372;
2024-05-27T22:49:48.789;540044407601762975;296127;363973;310184;-1399;
2024-05-27T22:49:48.807;540044407619922238;296229;364136;310265;-1345;
2024-05-27T22:49:48.825;540044407638081501;296305;364185;310316;-1369;
2024-05-27T22:49:48.844;540044407656240764;296362;364311;310437;-1337;
2024-05-27T22:49:48.862;540044407674400027;296481;364426;310507;-1317;
2024-05-27T22:49:48.880;540044407692559290;296540;364525;310548;-1316;
2024-05-27T22:49:48.898;540044407710718553;296584;364588;310574;-1356;
2024-05-27T22:49:48.916;540044407728877816;296631;364657;310664;-1318;
2024-05-27T22:49:48.934;540044407747037079;296713;364775;310764;-1344;
2024-05-27T22:49:48.953;540044407765196342;296826;364875;310875;-1325;
2024-05-27T22:49:48.971;540044407783355605;296955;365025;310956;-1294;
2024-05-27T22:49:48.989;540044407801514868;297015;365147;311045;-1373;
2024-05-27T22:49:49.007;540044407819674131;297090;365222;311160;-1351;
2024-05-27T22:49:49.025;540044407837833394;297157;365360;311198;-1344;
2024-05-27T22:49:49.043;540044407855992175;297257;365413;311298;-1340;
2024-05-27T22:49:49.061;540044407874150929;297340;365581;311330;-1323;
2024-05-27T22:49:49.080;540044407892309683;297407;365640;311442;-1356;
2024-05-27T22:49:49.098;540044407910468437;297530;365783;311514;-1319;
2024-05-27T22:49:49.116;540044407928627191;297617;365898;311670;-1348;
2024-05-27T22:49:49.134;540044407946785945;297623;365933;311642;-1390;
2024-05-27T22:49:49.152;540044407964944699;297564;365857;311520;-1369;
2024-05-27T22:49:49.170;540044407983103453;297455;365748;311439;-1284;
2024-05-27T22:49:49.189;540044408001262207;297297;365632;311292;-1342;
2024-05-27T22:49:49.207;540044408019420961;297105;365413;311088;-1320;
2024-05-27T22:49:49.225;540044408037579715;297002;365355;310920;-1289;
2024-05-27T22:49:49.243;540044408055738469;296919;365243;310764;-1345;
2024-05-27T22:49:49.261;540044408073897223;296866;365202;310678;-1328;
2024-05-27T22:49:49.279;540044408092055977;296868;365230;310682;-1291;
2024-05-27T22:49:49.298;540044408110214731;296847;365242;310720;-1373;
2024-05-27T22:49:49.316;540044408128373485;296916;365329;310791;-1327;
2024-05-27T22:49:49.334;540044408146532239;296976;365352;310796;-1383;
2024-05-27T22:49:49.352;540044408164690993;297055;365472;310902;-1324;
2024-05-27T22:49:49.370;540044408182849747;297036;365505;310937;-1347;
2024-05-27T22:49:49.388;540044408201008501;297255;365666;311004;-1280;
2024-05-27T22:49:49.406;540044408219167255;297273;365710;311083;-1287;
2024-05-27T22:49:49.425;540044408237326009;297337;365798;311144;-1312;
2024-05-27T22:49:49.443;540044408255484763;297365;365886;311238;-1317;
2024-05-27T22:49:49.461;540044408273643517;297382;365935;311242;-1316;
2024-05-27T22:49:49.479;540044408291802271;297516;366063;311353;-1299;
2024-05-27T22:49:49.497;540044408309961025;297543;366106;311315;-1308;
2024-05-27T22:49:49.515;540044408328119779;297628;366132;311385;-1297;
2024-05-27T22:49:49.534;540044408346278533;297622;366244;311444;-1250;
2024-05-27T22:49:49.552;540044408364437287;297726;366275;311471;-1265;
2024-05-27T22:49:49.570;540044408382596041;297704;366291;311463;-1339;
2024-05-27T22:49:49.588;540044408400754795;297776;366404;311561;-1338;
2024-05-27T22:49:49.606;540044408418913549;297872;366473;311643;-1325;
2024-05-27T22:49:49.624;540044408437072303;297905;366517;311648;-1368;
2024-05-27T22:49:49.643;540044408455231057;297989;366593;311690;-1313;
2024-05-27T22:49:49.661;540044408473389811;298050;366742;311803;-1344;
2024-05-27T22:49:49.679;540044408491548565;298137;366812;311905;-1320;
2024-05-27T22:49:49.697;540044408509707319;298191;366830;311946;-1330;
2024-05-27T22:49:49.715;540044408527866073;298260;366958;311991;-1288;
2024-05-27T22:49:49.733;540044408546024827;298385;367054;312043;-1336;
2024-05-27T22:49:49.751;540044408564183581;298414;367142;312099;-1329;
2024-05-27T22:49:49.770;540044408582342335;298492;367209;312169;-1353;
2024-05-27T22:49:49.788;540044408600501089;298556;367163;312195;-1309;
2024-05-27T22:49:49.806;540044408618660232;298413;367099;312044;-1323;
2024-05-27T22:49:49.824;540044408636819350;298372;367040;312033;-1348;
2024-05-27T22:49:49.842;540044408654978468;298218;366872;311853;-1318;
2024-05-27T22:49:49.860;540044408673137586;298089;366742;311685;-1356;
2024-05-27T22:49:49.879;540044408691296704;297980;366650;311544;-1337;
2024-05-27T22:49:49.897;540044408709455822;297928;366558;311462;-1303;
2024-05-27T22:49:49.915;540044408727614940;297939;366592;311415;-1309;
2024-05-27T22:49:49.933;540044408745774058;297913;366623;311387;-1392;
2024-05-27T22:49:49.951;540044408763933176;297905;366573;311343;-1380;
2024-05-27T22:49:49.969;540044408782092294;297957;366676;311383;-1343;
2024-05-27T22:49:49.988;540044408800251412;298122;366767;311525;-1295;
2024-05-27T22:49:50.006;540044408818410530;298160;366848;311523;-1348;
2024-05-27T22:49:50.024;540044408836569648;298252;366978;311630;-1297;
2024-05-27T22:49:50.042;540044408854728766;298346;367028;311721;-1285;
2024-05-27T22:49:50.060;540044408872887884;298412;367109;311778;-1267;
2024-05-27T22:49:50.078;540044408891047002;298455;367161;311881;-1348;
2024-05-27T22:49:50.097;540044408909206120;298556;367331;311990;-1314;
2024-05-27T22:49:50.115;540044408927365238;298597;367311;312047;-1345;
2024-05-27T22:49:50.133;540044408945524356;298658;367382;312120;-1382;
2024-05-27T22:49:50.151;540044408963683474;298795;367448;312163;-1373;
2024-05-27T22:49:50.169;540044408981842592;298783;367535;312230;-1323;
2024-05-27T22:49:50.187;540044409000001710;298883;367587;312244;-1321;
2024-05-27T22:49:50.205;540044409018160828;298957;367704;312338;-1364;
2024-05-27T22:49:50.224;540044409036319946;298961;367685;312307;-1327;
2024-05-27T22:49:50.242;540044409054479064;299012;367725;312324;-1427;
2024-05-27T22:49:50.260;540044409072638182;299128;367913;312466;-1355;
2024-05-27T22:49:50.278;540044409090797300;299216;367966;312488;-1381;
2024-05-27T22:49:50.296;540044409108956418;299277;368021;312580;-1404;
2024-05-27T22:49:50.314;540044409127115536;299374;368170;312731;-1399;
2024-05-27T22:49:50.333;540044409145274654;299474;368259;312740;-1356;
2024-05-27T22:49:50.351;540044409163433772;299508;368356;312858;-1342;
2024-05-27T22:49:50.369;540044409181592890;299652;368502;312902;-1361;
2024-05-27T22:49:50.387;540044409199752008;299727;368568;313042;-1303;
2024-05-27T22:49:50.405;540044409217911126;299794;368587;313105;-1326;
2024-05-27T22:49:50.423;540044409236070244;299898;368703;313193;-1299;
2024-05-27T22:49:50.442;540044409254229362;299956;368827;313219;-1338;
2024-05-27T22:49:50.460;540044409272388480;300068;368851;313274;-1371;
2024-05-27T22:49:50.478;540044409290547598;300048;368931;313310;-1345;
2024-05-27T22:49:50.496;540044409308706716;300070;368915;313367;-1341;
2024-05-27T22:49:50.514;540044409326865834;299989;368796;313225;-1347;
2024-05-27T22:49:50.532;540044409345024952;299841;368641;313094;-1363;
2024-05-27T22:49:50.550;540044409363184070;299784;368488;312995;-1333;
2024-05-27T22:49:50.569;540044409381342280;299710;368415;312820;-1390;
2024-05-27T22:49:50.587;540044409399500490;299585;368324;312750;-1357;
2024-05-27T22:49:50.605;540044409417658700;299535;368199;312646;-1372;
2024-05-27T22:49:50.623;540044409435816910;299535;368188;312647;-1354;
2024-05-27T22:49:50.641;540044409453975120;299596;368181;312619;-1374;
2024-05-27T22:49:50.659;540044409472133330;299641;368208;312640;-1345;
2024-05-27T22:49:50.678;540044409490291540;299732;368281;312732;-1299;
2024-05-27T22:49:50.696;540044409508449750;299751;368376;312812;-1293;
2024-05-27T22:49:50.714;540044409526607960;299822;368493;312884;-1323;
2024-05-27T22:49:50.732;540044409544766170;299874;368552;312853;-1368;
2024-05-27T22:49:50.750;540044409562924380;299901;368591;312922;-1406;
2024-05-27T22:49:50.768;540044409581082590;299982;368676;313040;-1320;
2024-05-27T22:49:50.787;540044409599240800;300042;368726;313118;-1269;
2024-05-27T22:49:50.805;540044409617399010;300075;368759;313180;-1307;
2024-05-27T22:49:50.823;540044409635557220;300038;368767;313136;-1313;
2024-05-27T22:49:50.841;540044409653715430;300132;368844;313216;-1294;
2024-05-27T22:49:50.859;540044409671873640;300212;368843;313268;-1257;
2024-05-27T22:49:50.877;540044409690031850;300219;368904;313260;-1327;
2024-05-27T22:49:50.895;540044409708190060;300240;368860;313310;-1326;
2024-05-27T22:49:50.914;540044409726348270;300335;368988;313350;-1318;
2024-05-27T22:49:50.932;540044409744506480;300357;369052;313344;-1343;
2024-05-27T22:49:50.950;540044409762664690;300424;369090;313415;-1331;
2024-05-27T22:49:50.968;540044409780822900;300477;369162;313531;-1372;
2024-05-27T22:49:50.986;540044409798981110;300540;369284;313570;-1344;
2024-05-27T22:49:51.004;540044409817139320;300594;369358;313660;-1301;
2024-05-27T22:49:51.023;540044409835297530;300617;369433;313699;-1336;
2024-05-27T22:49:51.041;540044409853455740;300693;369495;313810;-1360;
2024-05-27T22:49:51.059;540044409871613950;300705;369546;313827;-1341;
2024-05-27T22:49:51.077;540044409889772160;300791;369488;313899;-1342;
2024-05-27T22:49:51.095;540044409907930370;300892;369637;313986;-1294;
2024-05-27T22:49:51.113;540044409926088580;300974;369712;314041;-1328;
2024-05-27T22:49:51.132;540044409944246790;300990;369831;314084;-1330;
2024-05-27T22:49:51.150;540044409962405000;300953;369763;314066;-1369;
2024-05-27T22:49:51.168;540044409980563210;300900;369665;313978;-1329;
2024-05-27T22:49:51.186;540044409998721420;300798;369498;313876;-1348;
2024-05-27T22:49:51.204;540044410016879630;300765;369468;313804;-1341;
2024-05-27T22:49:51.222;540044410035037840;300770;369269;313715;-1323;
2024-05-27T22:49:51.241;540044410053196050;300693;369227;313659;-1360;
2024-05-27T22:49:51.259;540044410071354260;300680;369258;313618;-1347;
2024-05-27T22:49:51.277;540044410089512470;300690;369178;313664;-1371;
2024-05-27T22:49:51.295;540044410107670680;300664;369183;313613;-1389;
2024-05-27T22:49:51.313;540044410125828890;300787;369253;313723;-1272;
2024-05-27T22:49:51.331;540044410143987100;300728;369331;313671;-1335;
2024-05-27T22:49:51.349;540044410162145310;300838;369324;313828;-1306;
2024-05-27T22:49:51.368;540044410180303520;300853;369488;313854;-1323;
2024-05-27T22:49:51.386;540044410198461730;300920;369529;313930;-1318;
2024-05-27T22:49:51.404;540044410216619940;300925;369532;313944;-1333;
2024-05-27T22:49:51.422;540044410234778150;300967;369534;313965;-1308;
2024-05-27T22:49:51.440;540044410252936360;300993;369610;314016;-1351;
2024-05-27T22:49:51.458;540044410271094570;301097;369712;314118;-1285;
2024-05-27T22:49:51.477;540044410289252780;301127;369768;314138;-1365;
2024-05-27T22:49:51.495;540044410307410990;301121;369756;314193;-1337;
2024-05-27T22:49:51.513;540044410325569200;301181;369797;314208;-1348;
2024-05-27T22:49:51.531;540044410343727410;301137;369823;314209;-1365;
2024-05-27T22:49:51.549;540044410361885620;301242;369898;314259;-1346;
2024-05-27T22:49:51.567;540044410380043830;301279;369938;314349;-1301;
2024-05-27T22:49:51.586;540044410398202040;301283;369909;314308;-1369;
2024-05-27T22:49:51.604;540044410416360250;301269;369883;314350;-1342;
2024-05-27T22:49:51.622;540044410434518460;301332;369980;314386;-1303;
2024-05-27T22:49:51.640;540044410452676670;301407;370043;314520;-1338;
2024-05-27T22:49:51.658;540044410470834880;301485;370088;314556;-1375;
2024-05-27T22:49:51.676;540044410488993090;301502;370193;314561;-1362;
2024-05-27T22:49:51.694;540044410507151300;301650;370250;314658;-1300;
2024-05-27T22:49:51.713;540044410525309510;301594;370296;314684;-1306;
2024-05-27T22:49:51.731;540044410543467720;301638;370239;314748;-1338;
2024-05-27T22:49:51.749;540044410561625930;301583;370252;314740;-1277;
2024-05-27T22:49:51.767;540044410579784140;301568;370159;314666;-1296;
2024-05-27T22:49:51.785;540044410597942350;301478;369923;314538;-1283;
2024-05-27T22:49:51.803;540044410616100560;301365;369787;314407;-1255;
2024-05-27T22:49:51.822;540044410634258770;301253;369622;314266;-1268;
2024-05-27T22:49:51.840;540044410652416980;301107;369429;314099;-1337;
2024-05-27T22:49:51.858;540044410670575190;301140;369384;314100;-1345;
2024-05-27T22:49:51.876;540044410688733400;301074;369378;314090;-1362;
2024-05-27T22:49:51.894;540044410706891610;301085;369372;314039;-1291;
2024-05-27T22:49:51.912;540044410725049820;301036;369372;314039;-1340;
2024-05-27T22:49:51.931;540044410743208030;301071;369369;314083;-1352;
2024-05-27T22:49:51.949;540044410761366240;301159;369473;314062;-1279;
2024-05-27T22:49:51.967;540044410779524450;301159;369481;314163;-1320;
2024-05-27T22:49:51.985;540044410797682660;301211;369503;314165;-1322;
2024-05-27T22:49:52.003;540044410815840870;301281;369594;314211;-1320;
2024-05-27T22:49:52.021;540044410833999080;301383;369669;314228;-1288;
2024-05-27T22:49:52.039;540044410852157290;301366;369662;314286;-1329;
2024-05-27T22:49:52.058;540044410870315500;301352;369677;314355;-1289;
2024-05-27T22:49:52.076;540044410888473710;301415;369664;314422;-1287;
2024-05-27T22:49:52.094;540044410906631920;301415;369704;314472;-1296;
2024-05-27T22:49:52.112;540044410924790130;301430;369788;314459;-1318;
2024-05-27T22:49:52.130;540044410942948340;301474;369849;314530;-1273;
2024-05-27T22:49:52.148;540044410961105628;301457;369859;314556;-1300;
2024-05-27T22:49:52.167;540044410979262879;301554;369849;314607;-1314;
2024-05-27T22:49:52.185;540044410997420130;301608;369983;314738;-1302;
2024-05-27T22:49:52.203;540044411015577381;301676;370003;314722;-1319;
2024-05-27T22:49:52.221;540044411033734632;301754;370073;314776;-1306;
2024-05-27T22:49:52.239;540044411051891883;301811;370119;314849;-1335;
2024-05-27T22:49:52.257;540044411070049134;301889;370232;314915;-1320;
2024-05-27T22:49:52.276;540044411088206385;301890;370249;315004;-1329;
2024-05-27T22:49:52.294;540044411106363636;302012;370414;315114;-1285;
2024-05-27T22:49:52.312;540044411124520887;302110;370471;315244;-1340;
2024-05-27T22:49:52.330;540044411142678138;302185;370590;315318;-1283;
2024-05-27T22:49:52.348;540044411160835389;302201;370688;315388;-1338;
2024-05-27T22:49:52.366;540044411178992640;302245;370707;315396;-1348;
2024-05-27T22:49:52.384;540044411197149891;302241;370710;315470;-1317;
2024-05-27T22:49:52.403;540044411215307142;302201;370539;315389;-1303;
2024-05-27T22:49:52.421;540044411233464393;302153;370420;315207;-1318;
2024-05-27T22:49:52.439;540044411251621644;302075;370283;315175;-1271;
2024-05-27T22:49:52.457;540044411269778895;302031;370139;315131;-1270;
2024-05-27T22:49:52.475;540044411287936146;301922;370078;315020;-1329;
2024-05-27T22:49:52.493;540044411306093397;301897;370047;315001;-1311;
2024-05-27T22:49:52.512;540044411324250648;301850;369991;314958;-1333;
2024-05-27T22:49:52.530;540044411342407899;301939;369959;314960;-1328;
2024-05-27T22:49:52.548;540044411360565150;302009;370061;315068;-1364;
2024-05-27T22:49:52.566;540044411378722401;302061;370110;315115;-1314;
2024-05-27T22:49:52.584;540044411396879652;302197;370192;315213;-1314;
2024-05-27T22:49:52.602;540044411415036903;302323;370317;315354;-1275;
2024-05-27T22:49:52.621;540044411433194154;302372;370445;315420;-1300;
2024-05-27T22:49:52.639;540044411451351405;302410;370500;315499;-1299;
2024-05-27T22:49:52.657;540044411469508656;302467;370618;315558;-1300;
2024-05-27T22:49:52.675;540044411487665907;302522;370663;315616;-1310;
2024-05-27T22:49:52.693;540044411505823158;302608;370739;315676;-1269;
2024-05-27T22:49:52.711;540044411523980409;302620;370701;315667;-1239;
2024-05-27T22:49:52.729;540044411542137660;302682;370739;315728;-1271;
2024-05-27T22:49:52.748;540044411560294911;302697;370795;315798;-1333;
2024-05-27T22:49:52.766;540044411578452162;302702;370815;315823;-1309;
2024-05-27T22:49:52.784;540044411596609413;302722;370840;315900;-1321;
2024-05-27T22:49:52.802;540044411614766664;302803;370847;315923;-1309;
2024-05-27T22:49:52.820;540044411632923915;302809;370950;315935;-1274;
2024-05-27T22:49:52.838;540044411651081166;302879;371030;315993;-1296;
2024-05-27T22:49:52.857;540044411669238417;302934;371117;316065;-1312;
2024-05-27T22:49:52.875;540044411687395668;302938;371112;316073;-1327;
2024-05-27T22:49:52.893;540044411705552919;302979;371157;316161;-1336;
2024-05-27T22:49:52.911;540044411723710170;302999;371201;316194;-1267;
2024-05-27T22:49:52.929;540044411741867544;303070;371246;316244;-1302;
2024-05-27T22:49:52.947;540044411760024906;303124;371288;316298;-1338;
2024-05-27T22:49:52.965;540044411778182268;303197;371323;316297;-1296;
2024-05-27T22:49:52.984;540044411796339630;303190;371352;316417;-1276;
2024-05-27T22:49:53.002;540044411814496992;303138;371310;316319;-1326;
2024-05-27T22:49:53.020;540044411832654354;303027;371150;316238;-1303;
2024-05-27T22:49:53.038;540044411850811716;302947;370985;316112;-1325;
2024-05-27T22:49:53.056;540044411868969078;302782;370755;315967;-1357;
2024-05-27T22:49:53.074;540044411887126440;302699;370561;315863;-1321;
2024-05-27T22:49:53.093;540044411905283802;302618;370382;315748;-1266;
2024-05-27T22:49:53.111;540044411923441164;302561;370319;315739;-1271;
2024-05-27T22:49:53.129;540044411941598526;302501;370176;315617;-1368;
2024-05-27T22:49:53.147;540044411959755888;302491;370166;315582;-1336;
2024-05-27T22:49:53.165;540044411977913250;302565;370253;315627;-1318;
2024-05-27T22:49:53.183;540044411996070612;302630;370229;315699;-1308;
2024-05-27T22:49:53.202;540044412014227974;302673;370231;315695;-1321;
2024-05-27T22:49:53.220;540044412032385336;302731;370264;315804;-1285;
2024-05-27T22:49:53.238;540044412050542698;302782;370367;315887;-1274;
2024-05-27T22:49:53.256;540044412068700060;302785;370438;315889;-1326;
2024-05-27T22:49:53.274;540044412086857422;302851;370520;315948;-1331;
2024-05-27T22:49:53.292;540044412105014784;302855;370471;315948;-1278;
2024-05-27T22:49:53.310;540044412123172146;302802;370441;315895;-1294;
2024-05-27T22:49:53.329;540044412141329508;302877;370542;315995;-1263;
2024-05-27T22:49:53.347;540044412159486870;302874;370561;315983;-1291;
2024-05-27T22:49:53.365;540044412177644232;302962;370560;316037;-1244;
2024-05-27T22:49:53.383;540044412195801594;302883;370517;316025;-1278;
2024-05-27T22:49:53.401;540044412213958956;302959;370541;316069;-1251;
2024-05-27T22:49:53.419;540044412232116318;302965;370568;316166;-1269;
2024-05-27T22:49:53.438;540044412250273680;302900;370522;316068;-1304;
2024-05-27T22:49:53.456;540044412268431042;302872;370571;316090;-1279;
2024-05-27T22:49:53.474;540044412286588404;302914;370537;316080;-1269;
2024-05-27T22:49:53.492;540044412304745766;302891;370519;316113;-1272;
2024-05-27T22:49:53.510;540044412322903128;302946;370583;316126;-1277;
2024-05-27T22:49:53.528;540044412341060490;302961;370556;316148;-1333;
2024-05-27T22:49:53.547;540044412359217852;303005;370624;316178;-1279;
2024-05-27T22:49:53.565;540044412377375214;303031;370655;316206;-1299;
2024-05-27T22:49:53.583;540044412395532576;302987;370621;316212;-1307;
2024-05-27T22:49:53.601;540044412413689938;302957;370624;316207;-1329;
2024-05-27T22:49:53.619;540044412431847300;303069;370675;316275;-1318;
2024-05-27T22:49:53.637;540044412450004662;303084;370611;316271;-1274;
2024-05-27T22:49:53.655;540044412468162024;302901;370471;316136;-1316;
2024-05-27T22:49:53.674;540044412486319386;302794;370156;315988;-1258;
2024-05-27T22:49:53.692;540044412504476748;302642;369897;315793;-1285;
2024-05-27T22:49:53.710;540044412522634110;302495;369666;315595;-1291;
2024-05-27T22:49:53.728;540044412540791472;302349;369509;315463;-1299;
2024-05-27T22:49:53.746;540044412558950130;302313;369354;315405;-1333;
2024-05-27T22:49:53.764;540044412577108746;302211;369195;315370;-1274;
2024-05-27T22:49:53.783;540044412595267362;302130;369117;315301;-1307;
2024-05-27T22:49:53.801;540044412613425978;302171;369148;315323;-1283;
2024-05-27T22:49:53.819;540044412631584594;302242;369093;315361;-1289;
2024-05-27T22:49:53.837;540044412649743210;302208;369108;315387;-1295;
2024-05-27T22:49:53.855;540044412667901826;302265;369191;315408;-1309;
2024-05-27T22:49:53.873;540044412686060442;302322;369235;315505;-1299;
2024-05-27T22:49:53.892;540044412704219058;302328;369319;315505;-1257;
2024-05-27T22:49:53.910;540044412722377674;302453;369344;315474;-1325;
2024-05-27T22:49:53.928;540044412740536290;302401;369288;315544;-1320;
2024-05-27T22:49:53.946;540044412758694906;302359;369302;315541;-1278;
2024-05-27T22:49:53.964;540044412776853522;302341;369273;315530;-1312;
2024-05-27T22:49:53.982;540044412795012138;302400;369278;315590;-1282;
2024-05-27T22:49:54.000;540044412813170754;302330;369294;315575;-1321;
2024-05-27T22:49:54.019;540044412831329370;302342;369256;315541;-1325;
2024-05-27T22:49:54.037;540044412849487986;302359;369162;315545;-1312;
2024-05-27T22:49:54.055;540044412867646602;302313;369153;315522;-1330;
2024-05-27T22:49:54.073;540044412885805218;302335;369138;315508;-1346;
2024-05-27T22:49:54.091;540044412903963834;302339;369100;315462;-1314;
2024-05-27T22:49:54.109;540044412922122450;302366;369164;315476;-1274;
2024-05-27T22:49:54.128;540044412940281066;302339;369175;315529;-1312;
2024-05-27T22:49:54.146;540044412958439682;302307;369136;315537;-1336;
2024-05-27T22:49:54.164;540044412976598298;302281;369155;315546;-1377;
2024-05-27T22:49:54.182;540044412994756914;302263;369108;315513;-1303;
2024-05-27T22:49:54.200;540044413012915530;302243;369124;315524;-1267;
2024-05-27T22:49:54.218;540044413031074146;302273;369082;315572;-1295;
2024-05-27T22:49:54.237;540044413049232762;302267;369019;315481;-1325;
2024-05-27T22:49:54.255;540044413067391378;302075;368817;315359;-1355;
2024-05-27T22:49:54.273;540044413085549994;301974;368565;315217;-1325;
2024-05-27T22:49:54.291;540044413103708610;301795;368228;314985;-1342;
2024-05-27T22:49:54.309;540044413121867226;301625;367908;314808;-1306;
2024-05-27T22:49:54.327;540044413140025842;301441;367572;314626;-1295;
2024-05-27T22:49:54.345;540044413158184458;301333;367486;314547;-1284;
2024-05-27T22:49:54.364;540044413176343074;301240;367312;314473;-1319;
2024-05-27T22:49:54.382;540044413194501690;301214;367213;314350;-1255;
2024-05-27T22:49:54.400;540044413212660306;301172;367233;314419;-1280;
2024-05-27T22:49:54.418;540044413230818922;301205;367275;314446;-1268;
2024-05-27T22:49:54.436;540044413248977538;301182;367368;314468;-1314;
2024-05-27T22:49:54.454;540044413267136154;301299;367417;314603;-1338;
2024-05-27T22:49:54.473;540044413285294770;301323;367463;314701;-1267;
2024-05-27T22:49:54.491;540044413303453386;301422;367538;314697;-1288;
2024-05-27T22:49:54.509;540044413321612002;301512;367624;314762;-1303;
2024-05-27T22:49:54.527;540044413339770618;301586;367629;314841;-1269;
2024-05-27T22:49:54.545;540044413357929234;301609;367699;314859;-1293;
2024-05-27T22:49:54.563;540044413376087444;301591;367704;314917;-1280;
2024-05-27T22:49:54.582;540044413394245654;301626;367740;314914;-1295;
2024-05-27T22:49:54.600;540044413412403864;301626;367713;314914;-1276;
2024-05-27T22:49:54.618;540044413430562074;301671;367755;314910;-1290;
2024-05-27T22:49:54.636;540044413448720284;301685;367807;314988;-1261;
2024-05-27T22:49:54.654;540044413466878494;301667;367777;315055;-1325;
2024-05-27T22:49:54.672;540044413485036704;301764;367725;314988;-1339;
2024-05-27T22:49:54.691;540044413503194914;301773;367736;315059;-1312;
2024-05-27T22:49:54.709;540044413521353124;301804;367763;315128;-1299;
2024-05-27T22:49:54.727;540044413539511334;301819;367806;315197;-1303;
2024-05-27T22:49:54.745;540044413557669544;301823;367927;315179;-1329;
2024-05-27T22:49:54.763;540044413575827754;301841;367887;315225;-1370;
2024-05-27T22:49:54.781;540044413593985964;301878;367922;315289;-1323;
2024-05-27T22:49:54.799;540044413612144174;301939;367987;315295;-1353;
2024-05-27T22:49:54.818;540044413630302384;301916;367928;315288;-1359;
2024-05-27T22:49:54.836;540044413648460594;301877;367852;315184;-1288;
2024-05-27T22:49:54.854;540044413666618804;301690;367532;315027;-1261;
2024-05-27T22:49:54.872;540044413684777014;301355;367180;314714;-1323;
2024-05-27T22:49:54.890;540044413702935224;301132;366741;314505;-1352;
2024-05-27T22:49:54.908;540044413721093434;300774;366254;314106;-1326;
2024-05-27T22:49:54.927;540044413739251644;300581;365823;313941;-1326;
2024-05-27T22:49:54.945;540044413757409854;300400;365527;313745;-1318;
2024-05-27T22:49:54.963;540044413775568064;300342;365348;313671;-1268;
2024-05-27T22:49:54.981;540044413793726274;300181;365197;313499;-1318;
2024-05-27T22:49:54.999;540044413811884484;300085;365084;313466;-1294;
2024-05-27T22:49:55.017;540044413830042694;300074;364997;313426;-1323;
2024-05-27T22:49:55.036;540044413848200904;300177;365024;313491;-1265;
2024-05-27T22:49:55.054;540044413866359114;300155;365008;313464;-1286;
2024-05-27T22:49:55.072;540044413884517324;300205;365090;313558;-1282;
2024-05-27T22:49:55.090;540044413902675534;300204;365151;313584;-1323;
2024-05-27T22:49:55.108;540044413920833744;300130;365106;313538;-1290;
2024-05-27T22:49:55.126;540044413938991954;300150;365149;313545;-1301;
2024-05-27T22:49:55.144;540044413957150164;300189;365135;313605;-1285;
2024-05-27T22:49:55.163;540044413975308374;300180;365144;313564;-1311;
2024-05-27T22:49:55.181;540044413993466584;300193;365129;313640;-1271;
2024-05-27T22:49:55.199;540044414011624794;300170;365040;313563;-1301;
2024-05-27T22:49:55.217;540044414029783004;300140;364981;313575;-1296;
2024-05-27T22:49:55.235;540044414047941214;300066;364871;313497;-1328;
2024-05-27T22:49:55.253;540044414066099424;300036;364909;313512;-1272;
2024-05-27T22:49:55.272;540044414084257634;300042;364883;313525;-1327;
2024-05-27T22:49:55.290;540044414102415844;299980;364869;313468;-1283;
2024-05-27T22:49:55.308;540044414120574054;300058;364869;313532;-1274;
2024-05-27T22:49:55.326;540044414138732264;300064;364890;313469;-1290;
2024-05-27T22:49:55.344;540044414156890474;300037;364866;313481;-1300;
2024-05-27T22:49:55.362;540044414175048684;300051;364777;313483;-1325;
2024-05-27T22:49:55.381;540044414193206894;300078;364834;313506;-1297;
2024-05-27T22:49:55.399;540044414211365104;300105;364885;313496;-1319;
2024-05-27T22:49:55.417;540044414229523314;300030;364827;313502;-1303;
2024-05-27T22:49:55.435;540044414247681524;299938;364616;313458;-1317;
2024-05-27T22:49:55.453;540044414265839734;299768;364269;313257;-1312;
2024-05-27T22:49:55.471;540044414283997944;299432;363866;312906;-1347;
2024-05-27T22:49:55.489;540044414302156154;299089;363335;312610;-1346;
2024-05-27T22:49:55.508;540044414320314364;298718;362843;312291;-1331;
2024-05-27T22:49:55.526;540044414338472574;298504;362483;312101;-1314;
2024-05-27T22:49:55.544;540044414356630784;298284;362183;311810;-1277;
2024-05-27T22:49:55.562;540044414374788994;298154;361914;311708;-1300;
2024-05-27T22:49:55.580;540044414392947204;298065;361754;311579;-1303;
2024-05-27T22:49:55.598;540044414411105414;298014;361649;311532;-1330;
2024-05-27T22:49:55.617;540044414429263624;297986;361647;311523;-1331;
2024-05-27T22:49:55.635;540044414447421834;298013;361661;311541;-1290;
2024-05-27T22:49:55.653;540044414465580044;298087;361698;311567;-1305;
2024-05-27T22:49:55.671;540044414483738254;298087;361798;311678;-1306;
2024-05-27T22:49:55.689;540044414501896464;298175;361865;311738;-1318;
2024-05-27T22:49:55.707;540044414520054674;298252;361972;311802;-1346;
2024-05-27T22:49:55.726;540044414538212884;298274;362022;311812;-1309;
2024-05-27T22:49:55.744;540044414556371094;298317;362030;311880;-1270;
2024-05-27T22:49:55.762;540044414574529304;298346;362025;311898;-1276;
2024-05-27T22:49:55.780;540044414592687514;298252;361982;311882;-1290;
2024-05-27T22:49:55.798;540044414610845724;298295;361947;311932;-1301;
2024-05-27T22:49:55.816;540044414629003934;298281;361922;311905;-1327;
2024-05-27T22:49:55.834;540044414647162144;298278;361907;311888;-1333;
2024-05-27T22:49:55.853;540044414665320354;298223;361869;311872;-1288;
2024-05-27T22:49:55.871;540044414683478564;298226;361891;311842;-1280;
2024-05-27T22:49:55.889;540044414701636774;298224;361888;311878;-1277;
2024-05-27T22:49:55.907;540044414719794984;298199;361897;311904;-1288;
2024-05-27T22:49:55.925;540044414737953194;298265;361923;311940;-1323;
2024-05-27T22:49:55.943;540044414756111404;298263;361905;311941;-1334;
2024-05-27T22:49:55.962;540044414774269614;298264;361909;311928;-1322;
2024-05-27T22:49:55.980;540044414792427824;298266;361895;311975;-1308;
2024-05-27T22:49:55.998;540044414810586034;298349;361897;312046;-1285;
2024-05-27T22:49:56.016;540044414828744244;298367;361959;312013;-1256;
2024-05-27T22:49:56.034;540044414846902454;298338;361959;312021;-1302;
2024-05-27T22:49:56.052;540044414865058506;298145;361677;311881;-1333;
2024-05-27T22:49:56.071;540044414883214524;297855;361278;311563;-1345;
2024-05-27T22:49:56.089;540044414901370542;297548;360746;311320;-1283;
2024-05-27T22:49:56.107;540044414919526560;297208;360206;310924;-1314;
2024-05-27T22:49:56.125;540044414937682578;296844;359754;310675;-1305;
2024-05-27T22:49:56.143;540044414955838596;296622;359305;310322;-1282;
